1.114
2.0710000000000006
2.9850000000000003
3.9150000000000005
4.8100000000000005
5.705000000000001
6.615000000000001
7.499000000000001
8.394000000000002
9.282000000000002
10.158000000000001
11.054000000000002
11.951000000000002
12.818000000000001
13.681000000000001
14.535000000000002
15.370000000000001
16.215000000000003
17.044
17.905
18.801000000000002
19.720000000000002
20.647000000000002
21.565
22.451
23.276000000000003
24.1
24.945
25.821
26.745
27.744000000000003
28.752000000000002
29.774
30.778000000000002
31.772
32.763000000000005
33.702000000000005
34.642
35.565000000000005
36.5
37.45
38.36
39.315000000000005
40.263000000000005
41.198
42.181000000000004
43.125
44.03
44.941
45.793
46.588
47.403
48.230000000000004
49.115
50.002
50.869
51.793
52.703
53.622
54.571000000000005
55.465
56.384
57.281
58.206
59.174
60.102000000000004
61.064
62.008
62.971000000000004
63.868
64.801
65.742
66.66000000000001
67.52600000000001
68.409
69.302
70.188
71.03800000000001
71.936
72.85900000000001
73.76
74.68
75.558
76.406
77.257
78.06800000000001
78.83200000000001
79.587
80.34400000000001
81.159
82.03300000000002
82.91900000000001
83.84700000000001
84.79700000000001
85.75300000000001
86.70500000000001
87.66400000000002
88.61200000000001
89.477
90.307
91.182
92.14800000000001
93.13100000000001
94.11500000000001
95.10700000000001
96.06
96.95500000000001
97.79100000000001
98.61200000000001
99.46900000000001
100.346
101.23500000000001
102.14000000000001
103.02400000000002
103.912
104.80600000000001
105.715
106.62
107.46000000000001
108.272
109.12
110.01
110.91700000000002
111.858
112.72300000000001
113.551
114.337
115.07600000000001
115.82600000000001
116.644
117.554
118.534
119.50600000000001
120.39200000000001
121.301
122.227
123.12500000000001
124.03300000000002
124.96300000000001
125.891
126.855
127.84200000000001
128.83
129.822
130.81300000000002
131.80100000000002
132.8
133.83100000000002
134.853
135.779
136.61700000000002
137.423
138.251
139.115
140.02
140.934
141.83800000000002
142.717
143.58100000000002
144.448
145.31400000000002
146.17100000000002
147.02
147.86
148.693
149.531
150.37800000000001
151.198
152.025
152.857
153.667
154.49300000000002
155.346
156.186
157.025
157.84900000000002
158.65300000000002
159.471
160.258
161.032
161.834
162.61800000000002
163.40200000000002
164.208
165.03400000000002
165.85600000000002
166.679
167.50900000000001
168.304
169.103
169.93200000000002
170.74
171.543
172.32600000000002
173.068
173.767
174.453
175.149
175.887
176.70600000000002
177.54500000000002
178.33100000000002
179.126
179.93900000000002
180.775
181.597
182.437
183.226
184.023
184.81900000000002
185.572
186.333
187.09900000000002
187.83800000000002
188.58200000000002
189.359
190.144
190.978
191.848
192.709
193.584
194.461
195.357
196.256
197.19400000000002
198.11
198.97500000000002
199.86700000000002
200.76500000000001
201.625
202.499
203.4
204.299
205.21200000000002
206.181
207.185
208.149
209.136
210.154
211.115
212.092
213.08
214.019
215.006
216.029
216.98700000000002
217.91500000000002
218.728
219.455
220.166
220.953
221.87
223.006
224.084
225.11100000000002
226.127
227.102
228.008
228.87800000000001
229.681
230.41
231.131
231.931
232.749
233.64600000000002
234.57600000000002
235.524
236.45700000000002
237.36700000000002
238.22500000000002
239.079
239.93900000000002
240.85000000000002
241.73700000000002
242.66
243.58700000000002
244.472
245.37800000000001
246.28
247.148
248.042
248.946
249.785
250.627
251.485
252.31300000000002
253.20100000000002
254.154
255.076
256.02500000000003
256.95200000000006
257.812
258.67600000000004
259.552
260.39700000000005
261.27400000000006
262.151
263.00000000000006
263.88000000000005
264.77500000000003
265.65600000000006
266.593
267.57800000000003
268.58500000000004
269.58700000000005
270.52700000000004
271.45000000000005
272.333
273.12800000000004
273.92400000000004
274.759
275.557
276.39700000000005
277.29300000000006
278.122
279.02000000000004
279.932
280.76700000000005
281.63800000000003
282.564
283.42900000000003
284.312
285.24800000000005
286.14700000000005
287.074
287.98600000000005
288.84600000000006
289.742
290.66100000000006
291.50800000000004
292.40900000000005
293.36400000000003
294.23100000000005
295.11800000000005
296.07900000000006
296.98400000000004
297.92900000000003
298.867
299.71600000000007
300.60900000000004
301.504
302.32000000000005
303.19700000000006
304.069
304.92800000000005
305.85600000000005
306.72700000000003
307.59200000000004
308.49300000000005
309.338
310.254
311.20500000000004
312.09700000000004
313.045
313.985
314.951
315.92300000000006
316.86800000000005
317.8
318.69300000000004
319.58200000000005
320.535
321.422
322.326
323.266
324.14000000000004
325.05300000000005
325.97900000000004
326.848
327.69800000000004
328.617
329.51900000000006
330.42300000000006
331.38500000000005
332.32000000000005
333.21900000000005
334.13100000000003
335.00300000000004
335.891
336.85100000000006
337.788
338.72200000000004
339.66900000000004
340.502
341.38500000000005
342.30500000000006
343.151
344.062
345.01200000000006
345.922
346.896
347.82900000000006
348.761
349.60900000000004
350.39400000000006
351.19800000000004
352.00100000000003
352.833
353.723
354.55500000000006
355.43000000000006
356.34100000000007
357.20500000000004
358.088
358.98800000000006
359.82000000000005
360.677
361.61400000000003
362.50100000000003
363.415
364.369
365.273
366.225
367.10300000000007
367.98300000000006
368.889
369.71600000000007
370.523
371.343
372.278
373.21900000000005
374.16800000000006
375.088
375.997
376.85800000000006
377.699
378.45300000000003
379.22100000000006
380.081
381.00000000000006
381.90700000000004
382.869
383.84200000000004
384.80800000000005
385.79800000000006
386.74300000000005
387.64900000000006
388.552
389.446
390.30600000000004
391.213
392.13500000000005
393.062
394.06800000000004
395.02000000000004
395.982
396.98100000000005
397.94000000000005
398.937
399.95500000000004
400.867
401.74500000000006
402.68300000000005
403.69200000000006
404.69200000000006
405.71500000000003
406.708
407.70200000000006
408.71900000000005
409.62800000000004
410.54200000000003
411.46700000000004
412.35600000000005
413.30100000000004
414.266
415.21000000000004
416.17300000000006
417.07900000000006
418.04300000000006
418.97800000000007
419.89400000000006
420.83000000000004
421.742
422.63700000000006
423.58200000000005
424.475
425.41800000000006
426.36300000000006
427.28100000000006
428.25800000000004
429.206
430.163
431.146
432.07200000000006
433.002
433.95900000000006
434.901
435.77900000000005
436.68300000000005
437.58900000000006
438.47400000000005
439.39900000000006
440.35900000000004
441.32300000000004
442.35100000000006
443.295
444.261
445.17400000000004
446.026
446.836
447.71700000000004
448.595
449.56100000000004
450.59000000000003
451.59600000000006
452.62800000000004
453.64700000000005
454.65500000000003
455.67100000000005
456.59600000000006
457.50600000000003
458.44100000000003
459.324
460.30600000000004
461.21400000000006
462.13500000000005
463.07900000000006
464.01300000000003
464.96700000000004
465.87500000000006
466.80500000000006
467.72200000000004
468.59900000000005
469.504
470.40900000000005
471.34600000000006
472.35100000000006
473.31000000000006
474.297
475.26000000000005
476.20300000000003
477.189
478.13500000000005
479.064
480.02900000000005
480.94000000000005
481.87100000000004
482.824
483.711
484.612
485.521
486.36400000000003
487.24600000000004
488.14000000000004
489.01000000000005
489.96600000000007
490.946
491.92600000000004
492.94700000000006
493.898
494.85400000000004
495.807
496.677
497.586
498.51000000000005
499.34200000000004
500.25500000000005
501.211
502.12600000000003
503.07900000000006
504.05300000000005
505.002
505.975
506.89200000000005
507.759
508.63700000000006
509.494
510.33200000000005
511.2490000000001
512.193
513.1179999999999
514.091
515.037
515.937
516.848
517.7379999999999
518.616
519.472
520.322
521.16
521.9449999999999
522.793
523.635
524.525
525.454
526.367
527.271
528.164
528.994
529.888
530.8149999999999
531.701
532.641
533.5889999999999
534.4879999999999
535.432
536.36
537.266
538.212
539.174
540.11
541.117
542.0799999999999
543.049
544.036
544.992
545.944
546.9309999999999
547.905
548.87
549.8679999999999
550.826
551.775
552.734
553.6129999999999
554.468
555.372
556.263
557.143
558.078
558.957
559.899
560.831
561.68
562.598
563.505
564.376
565.357
566.352
567.2379999999999
568.127
569.0749999999999
569.966
570.918
571.862
572.751
573.675
574.592
575.449
576.37
577.36
578.31
579.299
580.312
581.281
582.209
583.14
584.053
584.9549999999999
585.894
586.784
587.693
588.654
589.526
590.379
591.273
592.242
593.145
594.049
594.952
595.803
596.656
597.491
598.297
599.115
600.0079999999999
600.901
601.813
602.712
603.631
604.571
605.477
606.419
607.329
608.226
609.149
610.071
611.0409999999999
612.035
612.948
613.887
614.816
615.716
616.648
617.592
618.463
619.367
620.252
621.047
621.77
622.534
623.287
624.174
625.174
626.161
627.1709999999999
628.21
629.236
630.239
631.246
632.227
633.177
634.167
635.162
636.125
637.136
638.119
639.098
640.095
641.0559999999999
642.02
642.972
643.87
644.818
645.797
646.711
647.6419999999999
648.597
649.495
650.396
651.314
652.197
653.134
654.1569999999999
655.119
656.1469999999999
657.184
658.132
659.088
660.037
660.928
661.887
662.859
663.779
664.763
665.726
666.679
667.684
668.639
669.591
670.564
671.4739999999999
672.453
673.4689999999999
674.404
675.332
676.284
677.254
678.1469999999999
679.079
680.021
680.91
681.859
682.838
683.747
684.701
685.617
686.477
687.382
688.305
689.193
690.117
691.061
691.956
692.915
693.835
694.764
695.721
696.5939999999999
697.501
698.424
699.278
700.154
701.064
701.962
702.9449999999999
703.922
704.869
705.832
706.753
707.579
708.378
709.196
710.131
711.1
712.033
713.026
713.996
714.932
715.888
716.8149999999999
717.72
718.654
719.576
720.526
721.506
722.43
723.383
724.328
725.252
726.176
727.053
727.875
728.757
729.679
730.535
731.457
732.409
733.24
734.088
734.967
735.808
736.709
737.629
738.5219999999999
739.458
740.351
741.215
742.115
742.948
743.821
744.672
745.455
746.2479999999999
747.043
747.92
748.851
749.721
750.649
751.571
752.437
753.353
754.294
755.199
756.176
757.1419999999999
758.098
759.087
760.038
760.909
761.8199999999999
762.763
763.636
764.587
765.51
766.458
767.471
768.509
769.484
770.4739999999999
771.438
772.358
773.31
774.303
775.264
776.258
777.297
778.289
779.284
780.287
781.205
782.076
783.012
783.918
784.778
785.757
786.793
787.775
788.81
789.775
790.741
791.7379999999999
792.607
793.527
794.521
795.408
796.287
797.262
798.1899999999999
799.084
800.044
800.914
801.797
802.709
803.566
804.39
805.286
806.251
807.173
808.111
809.117
810.0939999999999
811.057
812.047
812.989
813.93
814.899
815.827
816.801
817.781
818.7189999999999
819.691
820.646
821.588
822.537
823.4449999999999
824.365
825.265
826.131
827.056
827.992
828.901
829.86
830.783
831.677
832.649
833.597
834.486
835.401
836.287
837.198
838.1709999999999
839.0889999999999
840.044
841.036
842.001
842.962
843.902
844.795
845.716
846.621
847.509
848.467
849.382
850.246
851.175
852.1419999999999
853.047
853.941
854.866
855.716
856.585
857.526
858.454
859.333
860.26
861.2139999999999
862.124
863.087
864.027
864.967
865.9689999999999
866.923
867.8919999999999
868.874
869.784
870.7
871.661
872.604
873.569
874.54
875.451
876.401
877.335
878.239
879.174
880.056
880.904
881.794
882.71
883.588
884.52
885.473
886.417
887.3919999999999
888.319
889.26
890.2
891.098
892.013
892.884
893.688
894.516
895.378
896.183
896.943
897.72
898.494
899.299
900.191
901.095
901.983
902.923
903.885
904.79
905.711
906.654
907.563
908.4979999999999
909.466
910.39
911.348
912.347
913.284
914.233
915.2429999999999
916.2379999999999
917.244
918.294
919.307
920.302
921.319
922.286
923.203
924.153
925.071
925.956
926.907
927.874
928.771
929.7189999999999
930.637
931.4739999999999
932.375
933.302
934.155
935.047
935.995
936.893
937.838
938.7959999999999
939.693
940.607
941.568
942.497
943.432
944.395
945.331
946.268
947.193
948.0649999999999
948.976
949.928
950.842
951.801
952.81
953.723
954.545
955.371
956.273
957.206
958.111
959.043
960.001
960.894
961.817
962.754
963.617
964.405
965.13
965.887
966.798
967.83
968.883
969.942
970.98
971.994
972.994
973.963
974.879
975.808
976.705
977.591
978.513
979.42
980.313
981.234
982.179
983.151
984.0459999999999
984.955
985.893
986.825
987.739
988.648
989.52
990.418
991.336
992.247
993.184
994.069
994.933
995.827
996.725
997.634
998.4879999999999
999.334
1000.16
1000.973
1001.777
1002.577
1003.366
1004.152
1004.942
1005.667
1006.381
1007.097
1007.809
1008.483
1009.196
1009.925
1010.709
1011.477
1012.289
1013.15
1014.008
1014.838
1015.713
1016.578
1017.41
1018.285
1019.115
1019.979
1020.818
1021.672
1022.5709999999999
1023.498
1024.367
1025.269
1026.191
1027.06
1027.941
1028.821
1029.664
1030.54
1031.431
1032.278
1033.162
1034.028
1034.921
1035.854
1036.754
1037.633
1038.5529999999999
1039.434
1040.273
1041.149
1042.011
1042.878
1043.812
1044.735
1045.609
1046.556
1047.453
1048.345
1049.32
1050.203
1051.119
1052.056
1052.901
1053.821
1054.774
1055.65
1056.609
1057.541
1058.441
1059.427
1060.301
1061.222
1062.118
1062.954
1063.871
1064.7549999999999
1065.615
1066.541
1067.4
1068.3029999999999
1069.215
1070.057
1070.936
1071.78
1072.6
1073.493
1074.411
1075.2839999999999
1076.182
1077.136
1078.081
1078.993
1079.903
1080.815
1081.663
1082.547
1083.494
1084.404
1085.417
1086.392
1087.346
1088.353
1089.304
1090.246
1091.201
1092.104
1093.031
1094.004
1094.94
1095.949
1096.939
1097.905
1098.898
1099.938
1100.945
1101.862
1102.765
1103.702
1104.67
1105.674
1106.682
1107.612
1108.592
1109.605
1110.55
1111.55
1112.552
1113.509
1114.507
1115.458
1116.459
1117.51
1118.479
1119.494
1120.507
1121.462
1122.423
1123.291
1124.104
1124.87
1125.618
1126.4859999999999
1127.347
1128.294
1129.282
1130.206
1131.156
1132.118
1132.998
1133.859
1134.746
1135.676
1136.548
1137.484
1138.4859999999999
1139.449
1140.46
1141.479
1142.454
1143.439
1144.424
1145.353
1146.281
1147.177
1148.126
1149.128
1150.118
1151.1009999999999
1152.083
1152.99
1153.879
1154.812
1155.681
1156.466
1157.195
1157.981
1158.749
1159.696
1160.7069999999999
1161.764
1162.773
1163.8029999999999
1164.826
1165.821
1166.819
1167.826
1168.815
1169.77
1170.788
1171.804
1172.802
1173.815
1174.827
1175.811
1176.839
1177.885
1178.94
1179.923
1180.901
1181.902
1182.934
1183.917
1184.922
1185.881
1186.853
1187.8319999999999
1188.738
1189.607
1190.502
1191.414
1192.302
1193.195
1194.099
1194.947
1195.804
1196.6779999999999
1197.545
1198.42
1199.306
1200.186
1201.054
1201.936
1202.835
1203.69
1204.607
1205.558
1206.47
1207.423
1208.37
1209.256
1210.163
1211.064
1211.902
1212.766
1213.667
1214.563
1215.528
1216.507
1217.5049999999999
1218.526
1219.51
1220.509
1221.488
1222.394
1223.328
1224.294
1225.227
1226.2069999999999
1227.209
1228.16
1229.118
1230.04
1230.965
1231.919
1232.845
1233.785
1234.761
1235.695
1236.653
1237.599
1238.514
1239.467
1240.418
1241.333
1242.29
1243.224
1244.137
1245.076
1245.979
1246.903
1247.859
1248.771
1249.6589999999999
1250.5529999999999
1251.414
1252.296
1253.168
1254.032
1254.884
1255.728
1256.552
1257.328
1258.072
1258.771
1259.48
1260.185
1260.921
1261.669
1262.43
1263.152
1263.8609999999999
1264.573
1265.309
1266.067
1266.895
1267.758
1268.651
1269.574
1270.437
1271.313
1272.227
1273.139
1274.035
1274.918
1275.748
1276.586
1277.458
1278.314
1279.137
1279.9569999999999
1280.792
1281.638
1282.511
1283.388
1284.254
1285.077
1285.8799999999999
1286.638
1287.366
1288.091
1288.925
1289.831
1290.799
1291.749
1292.641
1293.521
1294.4089999999999
1295.254
1296.07
1296.852
1297.452
1298.231
1299.206
1300.077
1300.9089999999999
1301.772
1302.644
1303.537
1304.419
1305.242
1306.063
1306.884
1307.682
1308.421
1309.186
1309.923
1310.695
1311.473
1312.28
1313.067
1313.85
1314.575
1315.287
1316.013
1316.714
1317.434
1318.171
1318.916
1319.684
1320.479
1321.286
1322.108
1322.96
1323.789
1324.595
1325.369
1326.162
1326.998
1327.837
1328.704
1329.531
1330.337
1331.157
1332.017
1332.891
1333.744
1334.585
1335.415
1336.212
1336.979
1337.778
1338.628
1339.535
1340.416
1341.285
1342.192
1343.084
1343.98
1344.853
1345.708
1346.524
1347.338
1348.2
1349.121
1350.071
1351.0339999999999
1351.916
1352.777
1353.555
1354.315
1355.108
1355.947
1356.808
1357.631
1358.429
1359.252
1360.1009999999999
1360.954
1361.873
1362.807
1363.7359999999999
1364.64
1365.542
1366.416
1367.287
1368.1779999999999
1368.999
1369.819
1370.679
1371.612
1372.604
1373.518
1374.43
1375.376
1376.356
1377.331
1378.295
1379.239
1380.197
1381.174
1382.138
1383.072
1383.991
1384.912
1385.873
1386.884
1387.882
1388.8
1389.674
1390.541
1391.444
1392.395
1393.3
1394.204
1395.116
1396.0149999999999
1396.927
1397.8509999999999
1398.724
1399.598
1400.488
1401.372
1402.297
1403.184
1404.0339999999999
1404.9089999999999
1405.819
1406.671
1407.549
1408.435
1409.258
1410.0629999999999
1410.886
1411.763
1412.6209999999999
1413.483
1414.37
1415.247
1416.124
1416.988
1417.829
1418.6589999999999
1419.4579999999999
1420.24
1421.0539999999999
1421.9089999999999
1422.778
1423.664
1424.49
1425.291
1426.0819999999999
1426.869
1427.673
1428.503
1429.346
1430.163
1430.966
1431.771
1432.5729999999999
1433.405
1434.225
1435.055
1435.897
1436.737
1437.5249999999999
1438.306
1439.127
1440.008
1440.882
1441.783
1442.665
1443.4959999999999
1444.315
1445.124
1445.902
1446.683
1447.518
1448.425
1449.353
1450.258
1451.209
1452.149
1453.031
1453.916
1454.796
1455.671
1456.567
1457.482
1458.4289999999999
1459.403
1460.289
1461.114
1461.907
1462.72
1463.574
1464.43
1465.267
1466.065
1466.836
1467.624
1468.402
1469.194
1469.99
1470.798
1471.644
1472.503
1473.387
1474.288
1475.18
1476.068
1476.954
1477.795
1478.605
1479.363
1480.12
1481.003
1481.932
1482.853
1483.778
1484.718
1485.623
1486.494
1487.3129999999999
1488.119
1488.961
1489.84
1490.644
1491.3899999999999
1492.206
1493.016
1493.892
1494.745
1495.594
1496.414
1497.252
1498.0539999999999
1498.853
1499.683
1500.4959999999999
1501.29
1502.081
1502.882
1503.695
1504.5629999999999
1505.474
1506.392
1507.293
1508.185
1509.052
1509.895
1510.697
1511.473
1512.3419999999999
1513.218
1514.088
1515.029
1516.045
1517.027
1517.978
1518.92
1519.878
1520.828
1521.767
1522.714
1523.671
1524.623
1525.668
1526.7079999999999
1527.655
1528.512
1529.329
1530.116
1530.972
1531.912
1532.988
1534.081
1535.1499999999999
1536.183
1537.172
1538.165
1539.186
1540.168
1541.112
1542.081
1543.058
1544.061
1545.0339999999999
1545.9769999999999
1546.939
1547.863
1548.769
1549.642
1550.549
1551.5049999999999
1552.365
1553.21
1554.067
1554.998
1555.933
1556.856
1557.7749999999999
1558.6599999999999
1559.478
1560.229
1560.972
1561.7749999999999
1562.637
1563.536
1564.463
1565.363
1566.23
1567.124
1568.0349999999999
1568.918
1569.814
1570.709
1571.608
1572.521
1573.426
1574.329
1575.282
1576.254
1577.24
1578.183
1579.116
1580.0529999999999
1580.952
1581.877
1582.846
1583.847
1584.792
1585.652
1586.431
1587.238
1588.1019999999999
1589.069
1590.0529999999999
1591.055
1592.084
1593.142
1594.191
1595.203
1596.194
1597.173
1598.172
1599.104
1599.98
1600.848
1601.749
1602.647
1603.479
1604.295
1605.137
1606.036
1606.971
1607.945
1608.952
1609.988
1611.027
1612.028
1613.027
1614.02
1615.0059999999999
1615.962
1616.8799999999999
