Id;SegmentIndex;VideoName;VideoMode;QuestionIndex;ExperimentSecond;DevicePosition;DeviceRotation;CombinedEyeDirection;CombinedEyeOrigin;LeftEyeOpeness;LeftEyeOrigin;LeftEyeDirection;LeftEyePositionInSensorArea;LeftEyePupilSize;RightEyeOpeness;RightEyeOrigin;RightEyeDirection;RightEyePositionInSensorArea;RightEyePupilSize;
1;0;;;0;0.029;(-0.092, 1.266, 0.101);(339.181, 8.349, 5.523);(-1.000, -1.000, -1.000);(-1.000, -1.000, -1.000);0.07;(0.000, 0.000, 0.000);(0.000, 0.000, 0.000);(-1.000, -1.000, 0.000);-1.00;0.07;(0.000, 0.000, 0.000);(0.000, 0.000, 0.000);(-1.000, -1.000, 0.000);-1.00
1;0;;;0;0.059;(-0.092, 1.266, 0.102);(339.205, 8.296, 5.499);(-1.000, -1.000, -1.000);(-1.000, -1.000, -1.000);0.08;(0.000, 0.000, 0.000);(0.000, 0.000, 0.000);(-1.000, -1.000, 0.000);-1.00;0.08;(0.000, 0.000, 0.000);(0.000, 0.000, 0.000);(-1.000, -1.000, 0.000);-1.00
1;0;;;0;0.085;(-0.092, 1.266, 0.103);(339.462, 7.830, 5.287);(-1.000, -1.000, -1.000);(-1.000, -1.000, -1.000);0.07;(0.000, 0.000, 0.000);(0.000, 0.000, 0.000);(-1.000, -1.000, 0.000);-1.00;0.08;(0.000, 0.000, 0.000);(0.000, 0.000, 0.000);(-1.000, -1.000, 0.000);-1.00
1;0;;;0;0.112;(-0.092, 1.266, 0.104);(339.402, 7.776, 5.261);(-1.000, -1.000, -1.000);(-1.000, -1.000, -1.000);0.06;(0.000, 0.000, 0.000);(0.000, 0.000, 0.000);(-1.000, -1.000, 0.000);-1.00;0.08;(0.000, 0.000, 0.000);(0.000, 0.000, 0.000);(-1.000, -1.000, 0.000);-1.00
1;0;;;0;0.125;(-0.092, 1.266, 0.104);(339.392, 7.675, 5.206);(-1.000, -1.000, -1.000);(-1.000, -1.000, -1.000);0.10;(0.000, 0.000, 0.000);(0.000, 0.000, 0.000);(-1.000, -1.000, 0.000);-1.00;0.08;(0.000, 0.000, 0.000);(0.000, 0.000, 0.000);(-1.000, -1.000, 0.000);-1.00
1;0;;;0;0.160;(-0.093, 1.267, 0.107);(339.496, 7.235, 4.998);(-1.000, -1.000, -1.000);(-1.000, -1.000, -1.000);0.05;(0.000, 0.000, 0.000);(0.000, 0.000, 0.000);(-1.000, -1.000, 0.000);-1.00;0.07;(0.000, 0.000, 0.000);(0.000, 0.000, 0.000);(-1.000, -1.000, 0.000);-1.00
1;0;;;0;0.183;(-0.093, 1.267, 0.108);(339.619, 6.969, 4.898);(-1.000, -1.000, -1.000);(-1.000, -1.000, -1.000);0.08;(0.000, 0.000, 0.000);(0.000, 0.000, 0.000);(-1.000, -1.000, 0.000);-1.00;0.08;(0.000, 0.000, 0.000);(0.000, 0.000, 0.000);(-1.000, -1.000, 0.000);-1.00
1;0;;;0;0.207;(-0.093, 1.268, 0.110);(339.649, 6.742, 4.779);(-1.000, -1.000, -1.000);(-1.000, -1.000, -1.000);0.10;(0.000, 0.000, 0.000);(0.000, 0.000, 0.000);(-1.000, -1.000, 0.000);-1.00;0.09;(0.000, 0.000, 0.000);(0.000, 0.000, 0.000);(-1.000, -1.000, 0.000);-1.00
1;0;;;0;0.232;(-0.092, 1.269, 0.113);(339.552, 6.575, 4.634);(-1.000, -1.000, -1.000);(-1.000, -1.000, -1.000);0.09;(0.000, 0.000, 0.000);(0.000, 0.000, 0.000);(-1.000, -1.000, 0.000);-1.00;0.06;(0.000, 0.000, 0.000);(0.000, 0.000, 0.000);(-1.000, -1.000, 0.000);-1.00
1;0;;;0;0.256;(-0.092, 1.269, 0.115);(339.476, 6.451, 4.446);(-1.000, -1.000, -1.000);(-1.000, -1.000, -1.000);0.08;(0.000, 0.000, 0.000);(0.000, 0.000, 0.000);(-1.000, -1.000, 0.000);-1.00;0.09;(0.000, 0.000, 0.000);(0.000, 0.000, 0.000);(-1.000, -1.000, 0.000);-1.00
1;0;;;0;0.280;(-0.092, 1.269, 0.118);(339.461, 6.303, 4.256);(-1.000, -1.000, -1.000);(-1.000, -1.000, -1.000);0.10;(0.000, 0.000, 0.000);(0.000, 0.000, 0.000);(-1.000, -1.000, 0.000);-1.00;0.07;(0.000, 0.000, 0.000);(0.000, 0.000, 0.000);(-1.000, -1.000, 0.000);-1.00
1;0;;;0;0.303;(-0.092, 1.269, 0.124);(339.637, 5.884, 3.913);(-1.000, -1.000, -1.000);(-1.000, -1.000, -1.000);0.08;(0.000, 0.000, 0.000);(0.000, 0.000, 0.000);(-1.000, -1.000, 0.000);-1.00;0.09;(0.000, 0.000, 0.000);(0.000, 0.000, 0.000);(-1.000, -1.000, 0.000);-1.00
1;0;;;0;0.327;(-0.092, 1.269, 0.126);(339.914, 5.704, 3.850);(-1.000, -1.000, -1.000);(-1.000, -1.000, -1.000);0.05;(0.000, 0.000, 0.000);(0.000, 0.000, 0.000);(-1.000, -1.000, 0.000);-1.00;0.05;(0.000, 0.000, 0.000);(0.000, 0.000, 0.000);(-1.000, -1.000, 0.000);-1.00
1;0;;;0;0.361;(-0.091, 1.267, 0.132);(340.540, 5.020, 3.808);(-1.000, -1.000, -1.000);(-1.000, -1.000, -1.000);0.05;(0.000, 0.000, 0.000);(0.000, 0.000, 0.000);(-1.000, -1.000, 0.000);-1.00;0.05;(0.000, 0.000, 0.000);(0.000, 0.000, 0.000);(-1.000, -1.000, 0.000);-1.00
1;0;;;0;0.385;(-0.091, 1.266, 0.137);(341.120, 4.370, 3.891);(-1.000, -1.000, -1.000);(-1.000, -1.000, -1.000);0.02;(0.000, 0.000, 0.000);(0.000, 0.000, 0.000);(-1.000, -1.000, 0.000);-1.00;0.05;(0.000, 0.000, 0.000);(0.000, 0.000, 0.000);(-1.000, -1.000, 0.000);-1.00
1;0;;;0;0.409;(-0.090, 1.265, 0.141);(341.847, 3.683, 4.028);(-1.000, -1.000, -1.000);(-1.000, -1.000, -1.000);0.04;(0.000, 0.000, 0.000);(0.000, 0.000, 0.000);(-1.000, -1.000, 0.000);-1.00;0.07;(0.000, 0.000, 0.000);(0.000, 0.000, 0.000);(-1.000, -1.000, 0.000);-1.00
1;0;;;0;0.434;(-0.089, 1.264, 0.145);(342.733, 3.061, 4.091);(-1.000, -1.000, -1.000);(-1.000, -1.000, -1.000);0.04;(0.000, 0.000, 0.000);(0.000, 0.000, 0.000);(-1.000, -1.000, 0.000);-1.00;0.06;(0.000, 0.000, 0.000);(0.000, 0.000, 0.000);(-1.000, -1.000, 0.000);-1.00
1;0;;;0;0.459;(-0.088, 1.262, 0.149);(343.643, 2.601, 4.012);(-1.000, -1.000, -1.000);(-1.000, -1.000, -1.000);0.00;(0.000, 0.000, 0.000);(0.000, 0.000, 0.000);(-1.000, -1.000, 0.000);-1.00;0.08;(0.000, 0.000, 0.000);(0.000, 0.000, 0.000);(-1.000, -1.000, 0.000);-1.00
1;0;;;0;0.482;(-0.086, 1.260, 0.154);(344.876, 2.151, 3.751);(-1.000, -1.000, -1.000);(-1.000, -1.000, -1.000);0.03;(0.000, 0.000, 0.000);(0.000, 0.000, 0.000);(-1.000, -1.000, 0.000);-1.00;0.06;(0.000, 0.000, 0.000);(0.000, 0.000, 0.000);(-1.000, -1.000, 0.000);-1.00
1;0;;;0;0.505;(-0.085, 1.259, 0.157);(345.422, 2.106, 3.489);(-1.000, -1.000, -1.000);(-1.000, -1.000, -1.000);0.01;(0.000, 0.000, 0.000);(0.000, 0.000, 0.000);(-1.000, -1.000, 0.000);-1.00;0.08;(0.000, 0.000, 0.000);(0.000, 0.000, 0.000);(-1.000, -1.000, 0.000);-1.00
1;0;;;0;0.529;(-0.084, 1.258, 0.160);(345.644, 2.194, 3.257);(-1.000, -1.000, -1.000);(-1.000, -1.000, -1.000);0.02;(0.000, 0.000, 0.000);(0.000, 0.000, 0.000);(-1.000, -1.000, 0.000);-1.00;0.05;(0.000, 0.000, 0.000);(0.000, 0.000, 0.000);(-1.000, -1.000, 0.000);-1.00
1;0;;;0;0.552;(-0.083, 1.258, 0.163);(345.677, 2.359, 3.196);(-1.000, -1.000, -1.000);(-1.000, -1.000, -1.000);0.00;(0.000, 0.000, 0.000);(0.000, 0.000, 0.000);(-1.000, -1.000, 0.000);-1.00;0.05;(0.000, 0.000, 0.000);(0.000, 0.000, 0.000);(-1.000, -1.000, 0.000);-1.00
1;0;;;0;0.575;(-0.083, 1.258, 0.165);(345.664, 2.474, 3.388);(-1.000, -1.000, -1.000);(-1.000, -1.000, -1.000);0.00;(0.000, 0.000, 0.000);(0.000, 0.000, 0.000);(-1.000, -1.000, 0.000);-1.00;0.06;(0.000, 0.000, 0.000);(0.000, 0.000, 0.000);(-1.000, -1.000, 0.000);-1.00
1;0;;;0;0.602;(-0.082, 1.257, 0.166);(345.761, 2.480, 3.841);(-1.000, -1.000, -1.000);(-1.000, -1.000, -1.000);0.00;(0.000, 0.000, 0.000);(0.000, 0.000, 0.000);(-1.000, -1.000, 0.000);-1.00;0.05;(0.000, 0.000, 0.000);(0.000, 0.000, 0.000);(-1.000, -1.000, 0.000);-1.00
1;0;;;0;0.637;(-0.082, 1.257, 0.170);(346.042, 2.301, 4.751);(-1.000, -1.000, -1.000);(-1.000, -1.000, -1.000);0.00;(0.000, 0.000, 0.000);(0.000, 0.000, 0.000);(-1.000, -1.000, 0.000);-1.00;0.06;(0.000, 0.000, 0.000);(0.000, 0.000, 0.000);(-1.000, -1.000, 0.000);-1.00
1;0;;;0;0.661;(-0.082, 1.257, 0.171);(346.174, 2.232, 5.146);(-1.000, -1.000, -1.000);(-1.000, -1.000, -1.000);0.00;(0.000, 0.000, 0.000);(0.000, 0.000, 0.000);(-1.000, -1.000, 0.000);-1.00;0.06;(0.000, 0.000, 0.000);(0.000, 0.000, 0.000);(-1.000, -1.000, 0.000);-1.00
1;0;;;0;0.685;(-0.082, 1.257, 0.173);(346.212, 2.545, 5.187);(-1.000, -1.000, -1.000);(-1.000, -1.000, -1.000);0.00;(0.000, 0.000, 0.000);(0.000, 0.000, 0.000);(-1.000, -1.000, 0.000);-1.00;0.08;(0.000, 0.000, 0.000);(0.000, 0.000, 0.000);(-1.000, -1.000, 0.000);-1.00
1;0;;;0;0.708;(-0.081, 1.257, 0.175);(346.238, 2.593, 5.365);(-1.000, -1.000, -1.000);(-1.000, -1.000, -1.000);0.00;(0.000, 0.000, 0.000);(0.000, 0.000, 0.000);(-1.000, -1.000, 0.000);-1.00;0.08;(0.000, 0.000, 0.000);(0.000, 0.000, 0.000);(-1.000, -1.000, 0.000);-1.00
1;0;;;0;0.732;(-0.080, 1.257, 0.176);(346.638, 2.979, 5.429);(-1.000, -1.000, -1.000);(-1.000, -1.000, -1.000);0.00;(0.000, 0.000, 0.000);(0.000, 0.000, 0.000);(-1.000, -1.000, 0.000);-1.00;0.07;(0.000, 0.000, 0.000);(0.000, 0.000, 0.000);(-1.000, -1.000, 0.000);-1.00
1;0;;;0;0.755;(-0.078, 1.257, 0.177);(347.164, 3.433, 5.676);(-1.000, -1.000, -1.000);(-1.000, -1.000, -1.000);0.00;(0.000, 0.000, 0.000);(0.000, 0.000, 0.000);(-1.000, -1.000, 0.000);-1.00;0.05;(0.000, 0.000, 0.000);(0.000, 0.000, 0.000);(-1.000, -1.000, 0.000);-1.00
1;0;;;0;0.779;(-0.076, 1.259, 0.178);(347.055, 4.514, 6.053);(-1.000, -1.000, -1.000);(-1.000, -1.000, -1.000);0.00;(0.000, 0.000, 0.000);(0.000, 0.000, 0.000);(-1.000, -1.000, 0.000);-1.00;0.11;(0.000, 0.000, 0.000);(0.000, 0.000, 0.000);(-1.000, -1.000, 0.000);-1.00
1;0;;;0;0.803;(-0.074, 1.260, 0.180);(346.509, 5.755, 6.283);(-1.000, -1.000, -1.000);(-1.000, -1.000, -1.000);0.14;(0.000, 0.000, 0.000);(0.000, 0.000, 0.000);(-1.000, -1.000, 0.000);-1.00;0.19;(0.000, 0.000, 0.000);(0.000, 0.000, 0.000);(-1.000, -1.000, 0.000);-1.00
1;0;;;0;0.836;(-0.071, 1.265, 0.181);(345.487, 7.840, 5.899);(-1.000, -1.000, -1.000);(-1.000, -1.000, -1.000);0.07;(0.000, 0.000, 0.000);(0.000, 0.000, 0.000);(-1.000, -1.000, 0.000);-1.00;0.12;(0.000, 0.000, 0.000);(0.000, 0.000, 0.000);(-1.000, -1.000, 0.000);-1.00
1;0;;;0;0.859;(-0.070, 1.267, 0.182);(345.240, 8.362, 6.047);(-1.000, -1.000, -1.000);(-1.000, -1.000, -1.000);0.05;(0.000, 0.000, 0.000);(0.000, 0.000, 0.000);(-1.000, -1.000, 0.000);-1.00;0.08;(0.000, 0.000, 0.000);(0.000, 0.000, 0.000);(-1.000, -1.000, 0.000);-1.00
1;0;;;0;0.883;(-0.069, 1.269, 0.183);(345.038, 8.370, 6.664);(-1.000, -1.000, -1.000);(-1.000, -1.000, -1.000);0.04;(0.000, 0.000, 0.000);(0.000, 0.000, 0.000);(-1.000, -1.000, 0.000);-1.00;0.07;(0.000, 0.000, 0.000);(0.000, 0.000, 0.000);(-1.000, -1.000, 0.000);-1.00
1;0;;;0;0.907;(-0.068, 1.270, 0.184);(345.102, 8.278, 6.901);(-1.000, -1.000, -1.000);(-1.000, -1.000, -1.000);0.06;(0.000, 0.000, 0.000);(0.000, 0.000, 0.000);(-1.000, -1.000, 0.000);-1.00;0.08;(0.000, 0.000, 0.000);(0.000, 0.000, 0.000);(-1.000, -1.000, 0.000);-1.00
1;0;;;0;0.931;(-0.068, 1.272, 0.186);(345.417, 7.851, 6.490);(-1.000, -1.000, -1.000);(-1.000, -1.000, -1.000);0.14;(0.000, 0.000, 0.000);(0.000, 0.000, 0.000);(-1.000, -1.000, 0.000);-1.00;0.11;(0.000, 0.000, 0.000);(0.000, 0.000, 0.000);(-1.000, -1.000, 0.000);-1.00
1;0;;;0;0.955;(-0.069, 1.274, 0.187);(346.142, 7.846, 5.700);(-1.000, -1.000, -1.000);(-1.000, -1.000, -1.000);0.24;(0.000, 0.000, 0.000);(0.000, 0.000, 0.000);(0.670, 0.298, 0.000);-1.00;0.12;(0.000, 0.000, 0.000);(0.000, 0.000, 0.000);(-1.000, -1.000, 0.000);-1.00
1;0;;;0;0.983;(-0.069, 1.275, 0.188);(347.509, 7.827, 5.041);(-1.000, -1.000, -1.000);(-1.000, -1.000, -1.000);0.72;(0.000, 0.000, 0.000);(0.000, 0.000, 0.000);(0.703, 0.295, 0.000);-1.00;0.48;(0.000, 0.000, 0.000);(0.000, 0.000, 0.000);(-1.000, -1.000, 0.000);-1.00
1;0;;;0;1.006;(-0.068, 1.278, 0.190);(350.026, 7.647, 3.974);(-1.000, -1.000, -1.000);(-1.000, -1.000, -1.000);0.96;(0.000, 0.000, 0.000);(0.000, 0.000, 0.000);(0.714, 0.306, 0.000);-1.00;0.69;(0.000, 0.000, 0.000);(0.000, 0.000, 0.000);(0.314, 0.409, 0.000);-1.00
1;0;;;0;1.031;(-0.068, 1.279, 0.191);(352.482, 7.520, 3.200);(-1.000, -1.000, -1.000);(-1.000, -1.000, -1.000);1.00;(0.000, 0.000, 0.000);(0.000, 0.000, 0.000);(0.719, 0.335, 0.000);-1.00;1.00;(0.000, 0.000, 0.000);(0.000, 0.000, 0.000);(0.306, 0.403, 0.000);-1.00
1;0;;;0;1.056;(-0.067, 1.279, 0.192);(354.780, 7.446, 2.311);(-1.000, -1.000, -1.000);(-1.000, -1.000, -1.000);1.00;(0.000, 0.000, 0.000);(0.000, 0.000, 0.000);(0.737, 0.634, 0.000);-1.00;1.00;(0.000, 0.000, 0.000);(0.000, 0.000, 0.000);(0.255, 0.545, 0.000);-1.00
1;0;;;0;1.080;(-0.066, 1.279, 0.193);(357.207, 7.416, 1.491);(-1.000, -1.000, -1.000);(-1.000, -1.000, -1.000);1.00;(0.000, 0.000, 0.000);(0.000, 0.000, 0.000);(0.909, 0.655, 0.000);-1.00;1.00;(0.000, 0.000, 0.000);(0.000, 0.000, 0.000);(0.242, 0.543, 0.000);-1.00
1;0;;;0;1.103;(-0.065, 1.279, 0.195);(0.245, 7.262, 0.596);(-1.000, -1.000, -1.000);(-1.000, -1.000, -1.000);1.00;(0.000, 0.000, 0.000);(0.000, 0.000, 0.000);(0.613, 0.404, 0.000);-1.00;1.00;(0.000, 0.000, 0.000);(0.000, 0.000, 0.000);(0.222, 0.533, 0.000);-1.00
1;0;;;0;1.125;(-0.064, 1.278, 0.197);(0.855, 7.227, 0.301);(-1.000, -1.000, -1.000);(-1.000, -1.000, -1.000);1.00;(0.000, 0.000, 0.000);(0.000, 0.000, 0.000);(0.905, 0.625, 0.000);-1.00;1.00;(0.000, 0.000, 0.000);(0.000, 0.000, 0.000);(0.222, 0.533, 0.000);-1.00
1;0;;;0;1.151;(-0.063, 1.278, 0.199);(0.041, 7.738, 359.933);(-1.000, -1.000, -1.000);(-1.000, -1.000, -1.000);1.00;(0.000, 0.000, 0.000);(0.000, 0.000, 0.000);(0.629, 0.402, 0.000);-1.00;1.00;(0.000, 0.000, 0.000);(0.000, 0.000, 0.000);(0.169, 0.604, 0.000);-1.00
1;0;;;0;1.187;(-0.062, 1.279, 0.202);(358.097, 8.481, 359.596);(-1.000, -1.000, -1.000);(-1.000, -1.000, -1.000);0.00;(0.000, 0.000, 0.000);(0.000, 0.000, 0.000);(0.633, 0.310, 0.000);-1.00;0.00;(0.000, 0.000, 0.000);(0.000, 0.000, 0.000);(-1.000, -1.000, 0.000);-1.00
1;0;;;0;1.210;(-0.063, 1.280, 0.204);(356.971, 8.567, 359.928);(-1.000, -1.000, -1.000);(-1.000, -1.000, -1.000);0.00;(0.000, 0.000, 0.000);(0.000, 0.000, 0.000);(0.609, 0.325, 0.000);-1.00;0.00;(0.000, 0.000, 0.000);(0.000, 0.000, 0.000);(-1.000, -1.000, 0.000);-1.00
1;0;;;0;1.236;(-0.064, 1.281, 0.205);(356.607, 8.515, 0.579);(-1.000, -1.000, -1.000);(-1.000, -1.000, -1.000);0.00;(0.000, 0.000, 0.000);(0.000, 0.000, 0.000);(-1.000, -1.000, 0.000);-1.00;0.00;(0.000, 0.000, 0.000);(0.000, 0.000, 0.000);(-1.000, -1.000, 0.000);-1.00
1;0;;;0;1.262;(-0.067, 1.281, 0.206);(354.674, 8.649, 1.287);(-1.000, -1.000, -1.000);(-1.000, -1.000, -1.000);0.00;(0.000, 0.000, 0.000);(0.000, 0.000, 0.000);(-1.000, -1.000, 0.000);-1.00;0.00;(0.000, 0.000, 0.000);(0.000, 0.000, 0.000);(-1.000, -1.000, 0.000);-1.00
1;0;;;0;1.276;(-0.068, 1.279, 0.206);(354.737, 8.678, 1.110);(-1.000, -1.000, -1.000);(-1.000, -1.000, -1.000);0.00;(0.000, 0.000, 0.000);(0.000, 0.000, 0.000);(-1.000, -1.000, 0.000);-1.00;0.00;(0.000, 0.000, 0.000);(0.000, 0.000, 0.000);(-1.000, -1.000, 0.000);-1.00
1;0;;;0;1.312;(-0.070, 1.273, 0.202);(354.899, 8.520, 0.678);(-1.000, -1.000, -1.000);(-1.000, -1.000, -1.000);0.00;(0.000, 0.000, 0.000);(0.000, 0.000, 0.000);(-1.000, -1.000, 0.000);-1.00;0.00;(0.000, 0.000, 0.000);(0.000, 0.000, 0.000);(-1.000, -1.000, 0.000);-1.00
1;0;;;0;1.336;(-0.071, 1.268, 0.199);(355.672, 8.220, 0.119);(-1.000, -1.000, -1.000);(-1.000, -1.000, -1.000);0.00;(0.000, 0.000, 0.000);(0.000, 0.000, 0.000);(-1.000, -1.000, 0.000);-1.00;0.00;(0.000, 0.000, 0.000);(0.000, 0.000, 0.000);(-1.000, -1.000, 0.000);-1.00
1;0;;;0;1.359;(-0.071, 1.260, 0.195);(356.886, 8.040, 359.362);(-1.000, -1.000, -1.000);(-1.000, -1.000, -1.000);0.00;(0.000, 0.000, 0.000);(0.000, 0.000, 0.000);(-1.000, -1.000, 0.000);-1.00;0.00;(0.000, 0.000, 0.000);(0.000, 0.000, 0.000);(-1.000, -1.000, 0.000);-1.00
1;0;;;0;1.384;(-0.071, 1.261, 0.195);(356.807, 8.094, 359.855);(-1.000, -1.000, -1.000);(-1.000, -1.000, -1.000);0.00;(0.000, 0.000, 0.000);(0.000, 0.000, 0.000);(-1.000, -1.000, 0.000);-1.00;0.11;(0.000, 0.000, 0.000);(0.000, 0.000, 0.000);(-1.000, -1.000, 0.000);-1.00
1;0;;;0;1.408;(-0.070, 1.262, 0.193);(356.766, 8.072, 0.596);(-1.000, -1.000, -1.000);(-1.000, -1.000, -1.000);0.00;(0.000, 0.000, 0.000);(0.000, 0.000, 0.000);(-1.000, -1.000, 0.000);-1.00;0.00;(0.000, 0.000, 0.000);(0.000, 0.000, 0.000);(-1.000, -1.000, 0.000);-1.00
1;0;;;0;1.433;(-0.070, 1.265, 0.191);(355.995, 8.200, 1.326);(-1.000, -1.000, -1.000);(-1.000, -1.000, -1.000);0.00;(0.000, 0.000, 0.000);(0.000, 0.000, 0.000);(-1.000, -1.000, 0.000);-1.00;0.00;(0.000, 0.000, 0.000);(0.000, 0.000, 0.000);(-1.000, -1.000, 0.000);-1.00
1;0;;;0;1.457;(-0.070, 1.268, 0.189);(355.155, 8.333, 2.041);(-1.000, -1.000, -1.000);(-1.000, -1.000, -1.000);0.00;(0.000, 0.000, 0.000);(0.000, 0.000, 0.000);(-1.000, -1.000, 0.000);-1.00;0.00;(0.000, 0.000, 0.000);(0.000, 0.000, 0.000);(-1.000, -1.000, 0.000);-1.00
1;0;;;0;1.481;(-0.069, 1.272, 0.187);(354.192, 8.401, 2.733);(-1.000, -1.000, -1.000);(-1.000, -1.000, -1.000);0.00;(0.000, 0.000, 0.000);(0.000, 0.000, 0.000);(-1.000, -1.000, 0.000);-1.00;0.00;(0.000, 0.000, 0.000);(0.000, 0.000, 0.000);(-1.000, -1.000, 0.000);-1.00
1;0;;;0;1.505;(-0.069, 1.278, 0.184);(352.627, 8.680, 3.678);(-1.000, -1.000, -1.000);(-1.000, -1.000, -1.000);0.00;(0.000, 0.000, 0.000);(0.000, 0.000, 0.000);(-1.000, -1.000, 0.000);-1.00;0.00;(0.000, 0.000, 0.000);(0.000, 0.000, 0.000);(-1.000, -1.000, 0.000);-1.00
1;0;;;0;1.530;(-0.070, 1.281, 0.181);(351.539, 9.035, 4.058);(-1.000, -1.000, -1.000);(-1.000, -1.000, -1.000);0.00;(0.000, 0.000, 0.000);(0.000, 0.000, 0.000);(-1.000, -1.000, 0.000);-1.00;0.00;(0.000, 0.000, 0.000);(0.000, 0.000, 0.000);(-1.000, -1.000, 0.000);-1.00
1;0;;;0;1.554;(-0.071, 1.283, 0.177);(350.696, 9.652, 4.142);(-1.000, -1.000, -1.000);(-1.000, -1.000, -1.000);0.00;(0.000, 0.000, 0.000);(0.000, 0.000, 0.000);(-1.000, -1.000, 0.000);-1.00;0.00;(0.000, 0.000, 0.000);(0.000, 0.000, 0.000);(-1.000, -1.000, 0.000);-1.00
1;0;;;0;1.579;(-0.071, 1.284, 0.173);(349.982, 10.205, 4.022);(-1.000, -1.000, -1.000);(-1.000, -1.000, -1.000);0.00;(0.000, 0.000, 0.000);(0.000, 0.000, 0.000);(-1.000, -1.000, 0.000);-1.00;0.00;(0.000, 0.000, 0.000);(0.000, 0.000, 0.000);(-1.000, -1.000, 0.000);-1.00
1;0;;;0;1.604;(-0.072, 1.285, 0.166);(348.855, 11.117, 3.848);(-1.000, -1.000, -1.000);(-1.000, -1.000, -1.000);0.00;(0.000, 0.000, 0.000);(0.000, 0.000, 0.000);(-1.000, -1.000, 0.000);-1.00;0.00;(0.000, 0.000, 0.000);(0.000, 0.000, 0.000);(-1.000, -1.000, 0.000);-1.00
1;0;;;0;1.627;(-0.072, 1.284, 0.163);(348.854, 11.335, 3.668);(-1.000, -1.000, -1.000);(-1.000, -1.000, -1.000);0.00;(0.000, 0.000, 0.000);(0.000, 0.000, 0.000);(-1.000, -1.000, 0.000);-1.00;0.00;(0.000, 0.000, 0.000);(0.000, 0.000, 0.000);(-1.000, -1.000, 0.000);-1.00
1;0;;;0;1.653;(-0.072, 1.283, 0.159);(348.658, 11.676, 3.537);(-1.000, -1.000, -1.000);(-1.000, -1.000, -1.000);1.00;(0.000, 0.000, 0.000);(0.000, 0.000, 0.000);(-1.000, -1.000, 0.000);-1.00;1.00;(0.000, 0.000, 0.000);(0.000, 0.000, 0.000);(-1.000, -1.000, 0.000);-1.00
1;0;;;0;1.678;(-0.072, 1.282, 0.155);(348.501, 11.889, 3.466);(-1.000, -1.000, -1.000);(-1.000, -1.000, -1.000);1.00;(0.000, 0.000, 0.000);(0.000, 0.000, 0.000);(-1.000, -1.000, 0.000);-1.00;1.00;(0.000, 0.000, 0.000);(0.000, 0.000, 0.000);(-1.000, -1.000, 0.000);-1.00
1;0;;;0;1.701;(-0.072, 1.282, 0.151);(348.357, 11.990, 3.470);(-1.000, -1.000, -1.000);(-1.000, -1.000, -1.000);1.00;(0.000, 0.000, 0.000);(0.000, 0.000, 0.000);(-1.000, -1.000, 0.000);-1.00;1.00;(0.000, 0.000, 0.000);(0.000, 0.000, 0.000);(-1.000, -1.000, 0.000);-1.00
1;0;;;0;1.725;(-0.073, 1.281, 0.143);(348.114, 12.105, 3.403);(-1.000, -1.000, -1.000);(-1.000, -1.000, -1.000);1.00;(0.000, 0.000, 0.000);(0.000, 0.000, 0.000);(-1.000, -1.000, 0.000);-1.00;1.00;(0.000, 0.000, 0.000);(0.000, 0.000, 0.000);(-1.000, -1.000, 0.000);-1.00
1;0;;;0;1.761;(-0.074, 1.282, 0.141);(348.033, 11.853, 3.233);(-1.000, -1.000, -1.000);(-1.000, -1.000, -1.000);1.00;(0.000, 0.000, 0.000);(0.000, 0.000, 0.000);(-1.000, -1.000, 0.000);-1.00;1.00;(0.000, 0.000, 0.000);(0.000, 0.000, 0.000);(-1.000, -1.000, 0.000);-1.00
1;0;;;0;1.785;(-0.075, 1.282, 0.138);(347.799, 11.735, 3.055);(-1.000, -1.000, -1.000);(-1.000, -1.000, -1.000);1.00;(0.000, 0.000, 0.000);(0.000, 0.000, 0.000);(-1.000, -1.000, 0.000);-1.00;1.00;(0.000, 0.000, 0.000);(0.000, 0.000, 0.000);(-1.000, -1.000, 0.000);-1.00
1;0;;;0;1.808;(-0.076, 1.283, 0.135);(347.488, 11.572, 2.882);(-1.000, -1.000, -1.000);(-1.000, -1.000, -1.000);1.00;(0.000, 0.000, 0.000);(0.000, 0.000, 0.000);(-1.000, -1.000, 0.000);-1.00;1.00;(0.000, 0.000, 0.000);(0.000, 0.000, 0.000);(-1.000, -1.000, 0.000);-1.00
1;0;;;0;1.832;(-0.078, 1.284, 0.133);(347.162, 11.280, 2.690);(-1.000, -1.000, -1.000);(-1.000, -1.000, -1.000);1.00;(0.000, 0.000, 0.000);(0.000, 0.000, 0.000);(-1.000, -1.000, 0.000);-1.00;1.00;(0.000, 0.000, 0.000);(0.000, 0.000, 0.000);(-1.000, -1.000, 0.000);-1.00
1;0;;;0;1.857;(-0.079, 1.284, 0.131);(346.844, 10.863, 2.519);(-1.000, -1.000, -1.000);(-1.000, -1.000, -1.000);1.00;(0.000, 0.000, 0.000);(0.000, 0.000, 0.000);(-1.000, -1.000, 0.000);-1.00;1.00;(0.000, 0.000, 0.000);(0.000, 0.000, 0.000);(-1.000, -1.000, 0.000);-1.00
1;0;;;0;1.879;(-0.080, 1.285, 0.128);(346.531, 10.449, 2.378);(-1.000, -1.000, -1.000);(-1.000, -1.000, -1.000);1.00;(0.000, 0.000, 0.000);(0.000, 0.000, 0.000);(-1.000, -1.000, 0.000);-1.00;1.00;(0.000, 0.000, 0.000);(0.000, 0.000, 0.000);(-1.000, -1.000, 0.000);-1.00
1;0;;;0;1.903;(-0.081, 1.286, 0.126);(346.256, 9.991, 2.297);(-1.000, -1.000, -1.000);(-1.000, -1.000, -1.000);1.00;(0.000, 0.000, 0.000);(0.000, 0.000, 0.000);(-1.000, -1.000, 0.000);-1.00;1.00;(0.000, 0.000, 0.000);(0.000, 0.000, 0.000);(-1.000, -1.000, 0.000);-1.00
1;0;;;0;1.926;(-0.083, 1.287, 0.123);(345.813, 9.401, 2.158);(-1.000, -1.000, -1.000);(-1.000, -1.000, -1.000);1.00;(0.000, 0.000, 0.000);(0.000, 0.000, 0.000);(-1.000, -1.000, 0.000);-1.00;1.00;(0.000, 0.000, 0.000);(0.000, 0.000, 0.000);(-1.000, -1.000, 0.000);-1.00
1;0;;;0;1.961;(-0.084, 1.288, 0.120);(345.392, 9.042, 1.989);(-1.000, -1.000, -1.000);(-1.000, -1.000, -1.000);1.00;(0.000, 0.000, 0.000);(0.000, 0.000, 0.000);(-1.000, -1.000, 0.000);-1.00;1.00;(0.000, 0.000, 0.000);(0.000, 0.000, 0.000);(-1.000, -1.000, 0.000);-1.00
1;0;;;0;1.985;(-0.084, 1.288, 0.118);(345.121, 8.833, 1.908);(-1.000, -1.000, -1.000);(-1.000, -1.000, -1.000);1.00;(0.000, 0.000, 0.000);(0.000, 0.000, 0.000);(-1.000, -1.000, 0.000);-1.00;1.00;(0.000, 0.000, 0.000);(0.000, 0.000, 0.000);(-1.000, -1.000, 0.000);-1.00
1;0;;;0;2.009;(-0.084, 1.288, 0.116);(344.842, 8.654, 1.944);(-1.000, -1.000, -1.000);(-1.000, -1.000, -1.000);1.00;(0.000, 0.000, 0.000);(0.000, 0.000, 0.000);(-1.000, -1.000, 0.000);-1.00;1.00;(0.000, 0.000, 0.000);(0.000, 0.000, 0.000);(-1.000, -1.000, 0.000);-1.00
1;0;;;0;2.032;(-0.085, 1.289, 0.115);(344.602, 8.596, 2.026);(-1.000, -1.000, -1.000);(-1.000, -1.000, -1.000);1.00;(0.000, 0.000, 0.000);(0.000, 0.000, 0.000);(-1.000, -1.000, 0.000);-1.00;1.00;(0.000, 0.000, 0.000);(0.000, 0.000, 0.000);(-1.000, -1.000, 0.000);-1.00
1;0;;;0;2.057;(-0.085, 1.289, 0.113);(344.422, 8.652, 2.026);(-1.000, -1.000, -1.000);(-1.000, -1.000, -1.000);1.00;(0.000, 0.000, 0.000);(0.000, 0.000, 0.000);(-1.000, -1.000, 0.000);-1.00;1.00;(0.000, 0.000, 0.000);(0.000, 0.000, 0.000);(-1.000, -1.000, 0.000);-1.00
1;0;;;0;2.081;(-0.085, 1.289, 0.112);(344.330, 8.791, 1.942);(-1.000, -1.000, -1.000);(-1.000, -1.000, -1.000);1.00;(0.000, 0.000, 0.000);(0.000, 0.000, 0.000);(-1.000, -1.000, 0.000);-1.00;1.00;(0.000, 0.000, 0.000);(0.000, 0.000, 0.000);(-1.000, -1.000, 0.000);-1.00
1;0;;;0;2.104;(-0.085, 1.289, 0.110);(344.240, 9.059, 1.822);(-1.000, -1.000, -1.000);(-1.000, -1.000, -1.000);1.00;(0.000, 0.000, 0.000);(0.000, 0.000, 0.000);(-1.000, -1.000, 0.000);-1.00;1.00;(0.000, 0.000, 0.000);(0.000, 0.000, 0.000);(-1.000, -1.000, 0.000);-1.00
1;0;;;0;2.128;(-0.084, 1.289, 0.110);(344.195, 9.265, 1.790);(-1.000, -1.000, -1.000);(-1.000, -1.000, -1.000);1.00;(0.000, 0.000, 0.000);(0.000, 0.000, 0.000);(-1.000, -1.000, 0.000);-1.00;1.00;(0.000, 0.000, 0.000);(0.000, 0.000, 0.000);(-1.000, -1.000, 0.000);-1.00
1;0;;;0;2.152;(-0.084, 1.289, 0.109);(344.133, 9.479, 1.816);(-1.000, -1.000, -1.000);(-1.000, -1.000, -1.000);1.00;(0.000, 0.000, 0.000);(0.000, 0.000, 0.000);(-1.000, -1.000, 0.000);-1.00;1.00;(0.000, 0.000, 0.000);(0.000, 0.000, 0.000);(-1.000, -1.000, 0.000);-1.00
1;0;;;0;2.175;(-0.084, 1.289, 0.109);(344.078, 9.658, 1.834);(-1.000, -1.000, -1.000);(-1.000, -1.000, -1.000);1.00;(0.000, 0.000, 0.000);(0.000, 0.000, 0.000);(-1.000, -1.000, 0.000);-1.00;1.00;(0.000, 0.000, 0.000);(0.000, 0.000, 0.000);(-1.000, -1.000, 0.000);-1.00
1;0;;;0;2.212;(-0.084, 1.289, 0.109);(344.051, 9.951, 1.803);(-1.000, -1.000, -1.000);(-1.000, -1.000, -1.000);1.00;(0.000, 0.000, 0.000);(0.000, 0.000, 0.000);(-1.000, -1.000, 0.000);-1.00;1.00;(0.000, 0.000, 0.000);(0.000, 0.000, 0.000);(-1.000, -1.000, 0.000);-1.00
1;0;;;0;2.235;(-0.083, 1.289, 0.109);(344.109, 10.099, 1.749);(-1.000, -1.000, -1.000);(-1.000, -1.000, -1.000);1.00;(0.000, 0.000, 0.000);(0.000, 0.000, 0.000);(-1.000, -1.000, 0.000);-1.00;1.00;(0.000, 0.000, 0.000);(0.000, 0.000, 0.000);(-1.000, -1.000, 0.000);-1.00
1;0;;;0;2.259;(-0.083, 1.289, 0.109);(344.287, 10.408, 1.704);(-1.000, -1.000, -1.000);(-1.000, -1.000, -1.000);1.00;(0.000, 0.000, 0.000);(0.000, 0.000, 0.000);(-1.000, -1.000, 0.000);-1.00;1.00;(0.000, 0.000, 0.000);(0.000, 0.000, 0.000);(-1.000, -1.000, 0.000);-1.00
1;0;;;0;2.286;(-0.082, 1.289, 0.109);(344.391, 10.497, 1.684);(-1.000, -1.000, -1.000);(-1.000, -1.000, -1.000);1.00;(0.000, 0.000, 0.000);(0.000, 0.000, 0.000);(-1.000, -1.000, 0.000);-1.00;1.00;(0.000, 0.000, 0.000);(0.000, 0.000, 0.000);(-1.000, -1.000, 0.000);-1.00
1;0;;;0;2.310;(-0.082, 1.288, 0.109);(344.532, 10.711, 1.628);(-1.000, -1.000, -1.000);(-1.000, -1.000, -1.000);1.00;(0.000, 0.000, 0.000);(0.000, 0.000, 0.000);(-1.000, -1.000, 0.000);-1.00;1.00;(0.000, 0.000, 0.000);(0.000, 0.000, 0.000);(-1.000, -1.000, 0.000);-1.00
1;0;;;0;2.334;(-0.081, 1.288, 0.110);(344.653, 10.918, 1.589);(-1.000, -1.000, -1.000);(-1.000, -1.000, -1.000);1.00;(0.000, 0.000, 0.000);(0.000, 0.000, 0.000);(-1.000, -1.000, 0.000);-1.00;1.00;(0.000, 0.000, 0.000);(0.000, 0.000, 0.000);(-1.000, -1.000, 0.000);-1.00
1;0;;;0;2.358;(-0.080, 1.288, 0.110);(344.759, 11.151, 1.565);(-1.000, -1.000, -1.000);(-1.000, -1.000, -1.000);1.00;(0.000, 0.000, 0.000);(0.000, 0.000, 0.000);(-1.000, -1.000, 0.000);-1.00;1.00;(0.000, 0.000, 0.000);(0.000, 0.000, 0.000);(-1.000, -1.000, 0.000);-1.00
1;0;;;0;2.382;(-0.079, 1.287, 0.110);(344.912, 11.512, 1.550);(-1.000, -1.000, -1.000);(-1.000, -1.000, -1.000);1.00;(0.000, 0.000, 0.000);(0.000, 0.000, 0.000);(-1.000, -1.000, 0.000);-1.00;1.00;(0.000, 0.000, 0.000);(0.000, 0.000, 0.000);(-1.000, -1.000, 0.000);-1.00
1;0;;;0;2.405;(-0.078, 1.287, 0.110);(344.941, 11.808, 1.569);(-1.000, -1.000, -1.000);(-1.000, -1.000, -1.000);1.00;(0.000, 0.000, 0.000);(0.000, 0.000, 0.000);(-1.000, -1.000, 0.000);-1.00;1.00;(0.000, 0.000, 0.000);(0.000, 0.000, 0.000);(-1.000, -1.000, 0.000);-1.00
1;0;;;0;2.429;(-0.077, 1.287, 0.110);(344.951, 12.092, 1.584);(-1.000, -1.000, -1.000);(-1.000, -1.000, -1.000);1.00;(0.000, 0.000, 0.000);(0.000, 0.000, 0.000);(-1.000, -1.000, 0.000);-1.00;1.00;(0.000, 0.000, 0.000);(0.000, 0.000, 0.000);(-1.000, -1.000, 0.000);-1.00
1;0;;;0;2.453;(-0.076, 1.287, 0.110);(344.999, 12.371, 1.606);(-1.000, -1.000, -1.000);(-1.000, -1.000, -1.000);1.00;(0.000, 0.000, 0.000);(0.000, 0.000, 0.000);(-1.000, -1.000, 0.000);-1.00;1.00;(0.000, 0.000, 0.000);(0.000, 0.000, 0.000);(-1.000, -1.000, 0.000);-1.00
1;0;;;0;2.478;(-0.075, 1.287, 0.110);(345.094, 12.710, 1.594);(-1.000, -1.000, -1.000);(-1.000, -1.000, -1.000);1.00;(0.000, 0.000, 0.000);(0.000, 0.000, 0.000);(-1.000, -1.000, 0.000);-1.00;1.00;(0.000, 0.000, 0.000);(0.000, 0.000, 0.000);(-1.000, -1.000, 0.000);-1.00
1;0;;;0;2.501;(-0.074, 1.287, 0.110);(345.215, 13.002, 1.559);(-1.000, -1.000, -1.000);(-1.000, -1.000, -1.000);1.00;(0.000, 0.000, 0.000);(0.000, 0.000, 0.000);(-1.000, -1.000, 0.000);-1.00;1.00;(0.000, 0.000, 0.000);(0.000, 0.000, 0.000);(-1.000, -1.000, 0.000);-1.00
1;0;;;0;2.526;(-0.073, 1.286, 0.111);(345.484, 13.528, 1.472);(-1.000, -1.000, -1.000);(-1.000, -1.000, -1.000);1.00;(0.000, 0.000, 0.000);(0.000, 0.000, 0.000);(-1.000, -1.000, 0.000);-1.00;1.00;(0.000, 0.000, 0.000);(0.000, 0.000, 0.000);(-1.000, -1.000, 0.000);-1.00
1;0;;;0;2.551;(-0.073, 1.286, 0.111);(345.554, 13.603, 1.478);(-1.000, -1.000, -1.000);(-1.000, -1.000, -1.000);1.00;(0.000, 0.000, 0.000);(0.000, 0.000, 0.000);(-1.000, -1.000, 0.000);-1.00;1.00;(0.000, 0.000, 0.000);(0.000, 0.000, 0.000);(-1.000, -1.000, 0.000);-1.00
1;0;;;0;2.586;(-0.072, 1.285, 0.111);(345.653, 13.843, 1.505);(-1.000, -1.000, -1.000);(-1.000, -1.000, -1.000);1.00;(0.000, 0.000, 0.000);(0.000, 0.000, 0.000);(-1.000, -1.000, 0.000);-1.00;1.00;(0.000, 0.000, 0.000);(0.000, 0.000, 0.000);(-1.000, -1.000, 0.000);-1.00
1;0;;;0;2.610;(-0.071, 1.285, 0.111);(345.692, 13.894, 1.558);(-1.000, -1.000, -1.000);(-1.000, -1.000, -1.000);1.00;(0.000, 0.000, 0.000);(0.000, 0.000, 0.000);(-1.000, -1.000, 0.000);-1.00;1.00;(0.000, 0.000, 0.000);(0.000, 0.000, 0.000);(-1.000, -1.000, 0.000);-1.00
1;0;;;0;2.634;(-0.071, 1.285, 0.111);(345.724, 13.922, 1.554);(-1.000, -1.000, -1.000);(-1.000, -1.000, -1.000);1.00;(0.000, 0.000, 0.000);(0.000, 0.000, 0.000);(-1.000, -1.000, 0.000);-1.00;1.00;(0.000, 0.000, 0.000);(0.000, 0.000, 0.000);(-1.000, -1.000, 0.000);-1.00
1;0;;;0;2.658;(-0.071, 1.285, 0.111);(345.793, 13.954, 1.541);(-1.000, -1.000, -1.000);(-1.000, -1.000, -1.000);1.00;(0.000, 0.000, 0.000);(0.000, 0.000, 0.000);(-1.000, -1.000, 0.000);-1.00;1.00;(0.000, 0.000, 0.000);(0.000, 0.000, 0.000);(-1.000, -1.000, 0.000);-1.00
1;0;;;0;2.682;(-0.071, 1.284, 0.111);(345.937, 13.971, 1.510);(-1.000, -1.000, -1.000);(-1.000, -1.000, -1.000);1.00;(0.000, 0.000, 0.000);(0.000, 0.000, 0.000);(-1.000, -1.000, 0.000);-1.00;1.00;(0.000, 0.000, 0.000);(0.000, 0.000, 0.000);(-1.000, -1.000, 0.000);-1.00
1;0;;;0;2.708;(-0.070, 1.283, 0.111);(346.096, 13.953, 1.473);(-1.000, -1.000, -1.000);(-1.000, -1.000, -1.000);1.00;(0.000, 0.000, 0.000);(0.000, 0.000, 0.000);(-1.000, -1.000, 0.000);-1.00;1.00;(0.000, 0.000, 0.000);(0.000, 0.000, 0.000);(-1.000, -1.000, 0.000);-1.00
1;0;;;0;2.731;(-0.070, 1.283, 0.111);(346.366, 13.925, 1.409);(-1.000, -1.000, -1.000);(-1.000, -1.000, -1.000);1.00;(0.000, 0.000, 0.000);(0.000, 0.000, 0.000);(-1.000, -1.000, 0.000);-1.00;1.00;(0.000, 0.000, 0.000);(0.000, 0.000, 0.000);(-1.000, -1.000, 0.000);-1.00
1;0;;;0;2.756;(-0.070, 1.281, 0.111);(346.805, 13.877, 1.293);(-1.000, -1.000, -1.000);(-1.000, -1.000, -1.000);1.00;(0.000, 0.000, 0.000);(0.000, 0.000, 0.000);(-1.000, -1.000, 0.000);-1.00;1.00;(0.000, 0.000, 0.000);(0.000, 0.000, 0.000);(-1.000, -1.000, 0.000);-1.00
1;0;;;0;2.779;(-0.071, 1.280, 0.111);(347.351, 13.789, 1.164);(-1.000, -1.000, -1.000);(-1.000, -1.000, -1.000);1.00;(0.000, 0.000, 0.000);(0.000, 0.000, 0.000);(-1.000, -1.000, 0.000);-1.00;1.00;(0.000, 0.000, 0.000);(0.000, 0.000, 0.000);(-1.000, -1.000, 0.000);-1.00
1;0;;;0;2.804;(-0.071, 1.278, 0.111);(347.974, 13.721, 0.992);(-1.000, -1.000, -1.000);(-1.000, -1.000, -1.000);1.00;(0.000, 0.000, 0.000);(0.000, 0.000, 0.000);(-1.000, -1.000, 0.000);-1.00;1.00;(0.000, 0.000, 0.000);(0.000, 0.000, 0.000);(-1.000, -1.000, 0.000);-1.00
1;0;;;0;2.827;(-0.071, 1.275, 0.111);(348.742, 13.598, 0.743);(-1.000, -1.000, -1.000);(-1.000, -1.000, -1.000);1.00;(0.000, 0.000, 0.000);(0.000, 0.000, 0.000);(-1.000, -1.000, 0.000);-1.00;1.00;(0.000, 0.000, 0.000);(0.000, 0.000, 0.000);(-1.000, -1.000, 0.000);-1.00
1;0;;;0;2.852;(-0.071, 1.272, 0.110);(349.343, 13.459, 0.764);(-1.000, -1.000, -1.000);(-1.000, -1.000, -1.000);0.00;(0.000, 0.000, 0.000);(0.000, 0.000, 0.000);(-1.000, -1.000, 0.000);-1.00;0.00;(0.000, 0.000, 0.000);(0.000, 0.000, 0.000);(-1.000, -1.000, 0.000);-1.00
1;0;;;0;2.875;(-0.071, 1.269, 0.110);(350.265, 13.214, 0.843);(-1.000, -1.000, -1.000);(-1.000, -1.000, -1.000);0.00;(0.000, 0.000, 0.000);(0.000, 0.000, 0.000);(-1.000, -1.000, 0.000);-1.00;0.00;(0.000, 0.000, 0.000);(0.000, 0.000, 0.000);(-1.000, -1.000, 0.000);-1.00
1;0;;;0;2.911;(-0.071, 1.262, 0.108);(352.003, 12.976, 0.698);(-1.000, -1.000, -1.000);(-1.000, -1.000, -1.000);0.00;(0.000, 0.000, 0.000);(0.000, 0.000, 0.000);(-1.000, -1.000, 0.000);-1.00;0.00;(0.000, 0.000, 0.000);(0.000, 0.000, 0.000);(-1.000, -1.000, 0.000);-1.00
1;0;;;0;2.937;(-0.071, 1.256, 0.107);(353.332, 12.919, 0.293);(-1.000, -1.000, -1.000);(-1.000, -1.000, -1.000);0.00;(0.000, 0.000, 0.000);(0.000, 0.000, 0.000);(-1.000, -1.000, 0.000);-1.00;0.00;(0.000, 0.000, 0.000);(0.000, 0.000, 0.000);(-1.000, -1.000, 0.000);-1.00
1;0;;;0;2.960;(-0.072, 1.247, 0.104);(355.456, 12.864, 359.460);(-1.000, -1.000, -1.000);(-1.000, -1.000, -1.000);0.00;(0.000, 0.000, 0.000);(0.000, 0.000, 0.000);(-1.000, -1.000, 0.000);-1.00;0.00;(0.000, 0.000, 0.000);(0.000, 0.000, 0.000);(-1.000, -1.000, 0.000);-1.00
1;0;;;0;2.986;(-0.073, 1.243, 0.103);(356.796, 12.508, 359.314);(-1.000, -1.000, -1.000);(-1.000, -1.000, -1.000);0.00;(0.000, 0.000, 0.000);(0.000, 0.000, 0.000);(-1.000, -1.000, 0.000);-1.00;0.00;(0.000, 0.000, 0.000);(0.000, 0.000, 0.000);(-1.000, -1.000, 0.000);-1.00
1;0;;;0;3.011;(-0.074, 1.243, 0.103);(356.234, 11.869, 0.157);(-1.000, -1.000, -1.000);(-1.000, -1.000, -1.000);0.00;(0.000, 0.000, 0.000);(0.000, 0.000, 0.000);(-1.000, -1.000, 0.000);-1.00;0.00;(0.000, 0.000, 0.000);(0.000, 0.000, 0.000);(-1.000, -1.000, 0.000);-1.00
1;1;conv2_3x3_6-14-36;NoAnomalies;0;3.034;(-0.074, 1.245, 0.103);(355.607, 11.573, 0.451);(-1.000, -1.000, -1.000);(-1.000, -1.000, -1.000);0.22;(0.000, 0.000, 0.000);(0.000, 0.000, 0.000);(-1.000, -1.000, 0.000);-1.00;0.32;(0.000, 0.000, 0.000);(0.000, 0.000, 0.000);(-1.000, -1.000, 0.000);-1.00
1;1;conv2_3x3_6-14-36;NoAnomalies;0;3.069;(-0.076, 1.246, 0.103);(355.176, 10.964, 0.486);(0.284, 0.326, 0.902);(-30.468, 6.930, -27.639);0.43;(0.000, 0.000, 0.000);(0.000, 0.000, 0.000);(-1.000, -1.000, 0.000);-1.00;0.11;(-30.468, 6.930, -27.639);(0.284, 0.326, 0.902);(0.450, 0.290, 0.000);4.38
1;1;conv2_3x3_6-14-36;NoAnomalies;0;3.082;(-0.078, 1.247, 0.102);(355.072, 10.627, 0.184);(0.303, 0.362, 0.881);(-31.275, 5.896, -27.635);0.42;(0.000, 0.000, 0.000);(0.000, 0.000, 0.000);(-1.000, -1.000, 0.000);-1.00;0.17;(-31.275, 5.896, -27.635);(0.303, 0.362, 0.881);(0.472, 0.317, 0.000);4.05
1;1;conv2_3x3_6-14-36;NoAnomalies;0;3.110;(-0.078, 1.247, 0.102);(355.054, 10.564, 359.486);(0.148, -0.359, 0.922);(-30.899, 9.919, -26.897);0.53;(31.374, 8.473, -26.622);(0.000, 0.000, 0.000);(0.528, 0.348, 0.000);-1.00;0.33;(-30.899, 9.919, -26.897);(0.148, -0.359, 0.922);(0.487, 0.302, 0.000);3.19
1;1;conv2_3x3_6-14-36;NoAnomalies;0;3.138;(-0.078, 1.248, 0.101);(355.134, 10.293, 359.433);(0.146, -0.207, 0.967);(-31.051, 9.460, -27.035);0.55;(31.219, 8.203, -33.056);(0.000, 0.000, 0.000);(0.529, 0.395, 0.000);-1.00;0.57;(-31.051, 9.460, -27.035);(0.146, -0.207, 0.967);(0.494, 0.289, 0.000);4.23
1;1;conv2_3x3_6-14-36;NoAnomalies;0;3.161;(-0.079, 1.249, 0.100);(355.243, 9.918, 359.356);(0.125, -0.195, 0.973);(-31.084, 8.893, -26.984);0.56;(31.166, 7.971, -39.234);(0.000, 0.000, 0.000);(0.529, 0.404, 0.000);-1.00;0.60;(-31.084, 8.893, -26.984);(0.125, -0.195, 0.973);(0.498, 0.306, 0.000);4.16
1;1;conv2_3x3_6-14-36;NoAnomalies;0;3.184;(-0.080, 1.249, 0.099);(355.679, 9.502, 359.616);(0.065, -0.089, 0.994);(-31.076, 8.170, -27.325);0.74;(30.940, 6.813, -31.258);(-0.304, -0.144, 0.942);(0.536, 0.415, 0.000);3.61;0.89;(-31.076, 8.170, -27.325);(0.065, -0.089, 0.994);(0.508, 0.315, 0.000);4.21
1;1;conv2_3x3_6-14-36;NoAnomalies;0;3.274;(-0.080, 1.248, 0.098);(356.385, 9.169, 359.696);(-0.341, -0.095, 0.935);(30.571, 6.036, -26.815);0.79;(30.571, 6.036, -26.814);(-0.341, -0.095, 0.935);(0.553, 0.398, 0.000);3.99;0.99;(-31.774, 7.608, -31.122);(0.100, 0.163, 0.981);(0.525, 0.318, 0.000);4.08
1;1;conv2_3x3_6-14-36;NoAnomalies;0;3.274;(-0.080, 1.248, 0.098);(356.385, 9.169, 359.696);(-0.341, -0.095, 0.935);(30.571, 6.036, -26.815);0.79;(30.571, 6.036, -26.814);(-0.341, -0.095, 0.935);(0.553, 0.398, 0.000);3.99;0.99;(-31.774, 7.608, -31.122);(0.100, 0.163, 0.981);(0.525, 0.318, 0.000);4.08
1;1;conv2_3x3_6-14-36;NoAnomalies;0;3.274;(-0.080, 1.248, 0.098);(356.385, 9.169, 359.696);(-0.341, -0.095, 0.935);(30.571, 6.036, -26.815);0.79;(30.571, 6.036, -26.814);(-0.341, -0.095, 0.935);(0.553, 0.398, 0.000);3.99;0.99;(-31.774, 7.608, -31.122);(0.100, 0.163, 0.981);(0.525, 0.318, 0.000);4.08
1;1;conv2_3x3_6-14-36;NoAnomalies;0;3.292;(-0.081, 1.248, 0.098);(356.601, 8.906, 359.725);(-0.345, -0.098, 0.933);(30.220, 5.921, -26.295);1.00;(30.220, 5.921, -26.295);(-0.345, -0.098, 0.933);(0.566, 0.398, 0.000);3.92;1.00;(-32.131, 8.504, -35.212);(0.087, 0.128, 0.988);(0.540, 0.325, 0.000);3.98
1;1;conv2_3x3_6-14-36;NoAnomalies;0;3.323;(-0.085, 1.249, 0.095);(356.886, 6.273, 0.078);(-0.357, -0.103, 0.929);(30.136, 5.874, -26.108);1.00;(30.136, 5.874, -26.108);(-0.357, -0.103, 0.929);(0.570, 0.399, 0.000);4.04;1.00;(-32.246, 8.486, -35.539);(0.073, 0.124, 0.990);(0.547, 0.329, 0.000);3.93
1;1;conv2_3x3_6-14-36;NoAnomalies;0;3.335;(-0.088, 1.249, 0.094);(356.257, 5.227, 0.155);(-0.316, -0.083, 0.945);(30.238, 5.842, -25.978);0.79;(30.238, 5.842, -25.978);(-0.316, -0.083, 0.945);(0.560, 0.395, 0.000);4.01;0.98;(-32.031, 7.941, -27.411);(0.080, -0.117, 0.990);(0.538, 0.328, 0.000);4.22
1;1;conv2_3x3_6-14-36;NoAnomalies;0;3.358;(-0.088, 1.249, 0.094);(356.055, 5.449, 0.140);(-0.274, -0.089, 0.958);(30.657, 6.266, -27.555);0.76;(30.657, 6.266, -27.555);(-0.274, -0.089, 0.958);(0.540, 0.395, 0.000);3.89;0.97;(-32.002, 6.916, -29.285);(0.198, 0.184, 0.963);(0.516, 0.325, 0.000);4.27
1;1;conv2_3x3_6-14-36;NoAnomalies;0;3.381;(-0.089, 1.249, 0.094);(356.249, 5.338, 0.082);(-0.286, -0.098, 0.953);(30.716, 6.337, -28.115);0.74;(30.716, 6.337, -28.115);(-0.286, -0.098, 0.953);(0.540, 0.398, 0.000);3.90;0.94;(-31.528, 8.058, -28.378);(0.102, -0.104, 0.989);(0.517, 0.329, 0.000);4.18
1;1;conv2_3x3_6-14-36;NoAnomalies;0;3.405;(-0.089, 1.249, 0.093);(356.304, 5.188, 359.956);(-0.282, -0.088, 0.955);(30.769, 5.994, -27.753);0.75;(30.769, 5.994, -27.753);(-0.282, -0.088, 0.955);(0.537, 0.405, 0.000);3.94;0.94;(-31.439, 7.984, -28.494);(0.092, -0.102, 0.991);(0.516, 0.332, 0.000);4.27
1;1;conv2_3x3_6-14-36;NoAnomalies;0;3.429;(-0.090, 1.249, 0.093);(355.941, 5.099, 359.989);(-0.283, -0.094, 0.954);(30.884, 5.533, -27.367);0.75;(30.884, 5.533, -27.367);(-0.283, -0.094, 0.954);(0.533, 0.418, 0.000);3.94;0.92;(-31.675, 7.301, -31.922);(0.149, 0.145, 0.978);(0.513, 0.339, 0.000);4.16
1;1;conv2_3x3_6-14-36;NoAnomalies;0;3.457;(-0.091, 1.249, 0.093);(355.806, 5.137, 359.972);(-1.000, -1.000, -1.000);(-1.000, -1.000, -1.000);0.24;(31.082, 5.171, -27.707);(0.000, 0.000, 0.000);(0.550, 0.464, 0.000);-1.00;0.04;(-31.294, 9.495, -41.980);(0.000, 0.000, 0.000);(0.472, 0.385, 0.000);-1.00
1;1;conv2_3x3_6-14-36;NoAnomalies;0;3.488;(-0.092, 1.249, 0.093);(355.632, 5.082, 359.935);(-1.000, -1.000, -1.000);(-1.000, -1.000, -1.000);0.00;(31.082, 5.171, -27.707);(0.000, 0.000, 0.000);(-1.000, -1.000, 0.000);-1.00;0.00;(-31.294, 9.495, -41.980);(0.000, 0.000, 0.000);(-1.000, -1.000, 0.000);-1.00
1;1;conv2_3x3_6-14-36;NoAnomalies;0;3.511;(-0.092, 1.249, 0.093);(355.618, 4.881, 0.202);(-1.000, -1.000, -1.000);(-1.000, -1.000, -1.000);0.04;(31.082, 5.171, -27.707);(0.000, 0.000, 0.000);(-1.000, -1.000, 0.000);-1.00;0.00;(-31.294, 9.495, -41.980);(0.000, 0.000, 0.000);(-1.000, -1.000, 0.000);-1.00
1;1;conv2_3x3_6-14-36;NoAnomalies;0;3.560;(-0.092, 1.249, 0.093);(355.710, 4.735, 0.444);(-1.000, -1.000, -1.000);(-1.000, -1.000, -1.000);0.04;(32.303, 4.337, -28.101);(0.000, 0.000, 0.000);(0.495, 0.552, 0.000);-1.00;0.00;(-31.157, 5.293, -29.321);(0.000, 0.000, 0.000);(0.488, 0.458, 0.000);-1.00
1;1;conv2_3x3_6-14-36;NoAnomalies;0;3.560;(-0.092, 1.249, 0.093);(355.710, 4.735, 0.444);(-1.000, -1.000, -1.000);(-1.000, -1.000, -1.000);0.04;(32.303, 4.337, -28.101);(0.000, 0.000, 0.000);(0.495, 0.552, 0.000);-1.00;0.00;(-31.157, 5.293, -29.321);(0.000, 0.000, 0.000);(0.488, 0.458, 0.000);-1.00
1;1;conv2_3x3_6-14-36;NoAnomalies;0;3.585;(-0.093, 1.247, 0.093);(356.303, 4.805, 0.825);(-1.000, -1.000, -1.000);(-1.000, -1.000, -1.000);0.29;(31.597, 3.714, -28.114);(0.000, 0.000, 0.000);(0.509, 0.490, 0.000);-1.00;0.14;(-30.753, 5.907, -28.976);(0.000, 0.000, 0.000);(0.487, 0.414, 0.000);-1.00
1;1;conv2_3x3_6-14-36;NoAnomalies;0;3.610;(-0.093, 1.247, 0.093);(356.087, 5.059, 0.919);(-1.000, -1.000, -1.000);(-1.000, -1.000, -1.000);0.42;(31.607, 3.948, -28.060);(0.000, 0.000, 0.000);(0.509, 0.479, 0.000);-1.00;0.37;(-30.700, 5.611, -26.344);(0.000, 0.000, 0.000);(0.488, 0.399, 0.000);-1.00
1;1;conv2_3x3_6-14-36;NoAnomalies;0;3.636;(-0.094, 1.248, 0.092);(355.894, 5.091, 1.277);(-0.283, -0.102, 0.954);(31.818, 3.846, -28.117);0.65;(31.818, 3.846, -28.117);(-0.283, -0.102, 0.954);(0.501, 0.482, 0.000);4.19;0.59;(-30.392, 5.547, -25.895);(0.105, -0.118, 0.987);(0.479, 0.397, 0.000);4.15
1;1;conv2_3x3_6-14-36;NoAnomalies;0;3.662;(-0.095, 1.249, 0.092);(355.404, 4.570, 1.815);(-0.279, -0.106, 0.954);(31.774, 3.787, -28.110);0.71;(31.774, 3.787, -28.110);(-0.279, -0.106, 0.954);(0.502, 0.485, 0.000);4.08;0.66;(-30.434, 5.420, -25.743);(0.099, -0.110, 0.989);(0.482, 0.398, 0.000);4.35
1;1;conv2_3x3_6-14-36;NoAnomalies;0;3.687;(-0.096, 1.249, 0.091);(354.971, 3.945, 2.118);(-0.281, -0.111, 0.953);(30.575, 3.802, -28.040);0.73;(31.661, 3.776, -28.080);(-0.288, -0.111, 0.951);(0.507, 0.486, 0.000);3.99;0.75;(-30.620, 5.251, -25.789);(0.098, -0.105, 0.990);(0.488, 0.404, 0.000);4.25
1;1;conv2_3x3_6-14-36;NoAnomalies;0;3.711;(-0.098, 1.250, 0.091);(354.697, 3.314, 2.281);(-0.219, -0.117, 0.969);(20.807, 3.904, -27.694);0.73;(31.440, 3.669, -28.091);(-0.282, -0.116, 0.952);(0.514, 0.490, 0.000);4.04;0.72;(-30.929, 5.047, -25.762);(0.104, -0.117, 0.988);(0.497, 0.412, 0.000);4.30
1;1;conv2_3x3_6-14-36;NoAnomalies;0;3.737;(-0.100, 1.250, 0.090);(354.360, 2.289, 2.527);(-0.262, -0.125, 0.957);(25.235, 3.740, -27.874);0.80;(31.211, 3.614, -28.074);(-0.297, -0.124, 0.947);(0.524, 0.494, 0.000);4.10;0.84;(-31.116, 4.923, -25.987);(0.089, -0.125, 0.988);(0.506, 0.419, 0.000);4.37
1;1;conv2_3x3_6-14-36;NoAnomalies;0;3.761;(-0.100, 1.249, 0.089);(354.520, 1.986, 2.576);(-0.301, -0.127, 0.945);(30.916, 3.695, -28.002);0.83;(31.054, 3.693, -28.006);(-0.302, -0.127, 0.945);(0.530, 0.491, 0.000);4.09;0.88;(-31.257, 5.023, -26.271);(0.083, -0.128, 0.988);(0.512, 0.419, 0.000);4.32
1;1;conv2_3x3_6-14-36;NoAnomalies;0;3.787;(-0.101, 1.249, 0.089);(354.527, 1.611, 2.518);(-0.297, -0.126, 0.946);(28.757, 3.973, -27.816);0.84;(30.968, 3.930, -27.882);(-0.310, -0.126, 0.942);(0.534, 0.482, 0.000);4.04;0.92;(-31.327, 5.153, -26.034);(0.071, -0.130, 0.989);(0.516, 0.413, 0.000);4.29
1;1;conv2_3x3_6-14-36;NoAnomalies;0;3.811;(-0.102, 1.249, 0.088);(354.525, 1.345, 2.333);(-0.104, -0.130, 0.986);(-2.962, 4.645, -26.863);0.84;(30.874, 3.924, -27.549);(-0.309, -0.126, 0.943);(0.537, 0.479, 0.000);4.07;0.93;(-31.410, 5.250, -26.287);(0.072, -0.130, 0.989);(0.518, 0.412, 0.000);4.25
1;1;conv2_3x3_6-14-36;NoAnomalies;0;3.836;(-0.103, 1.248, 0.088);(354.763, 0.927, 2.258);(-0.161, -0.136, 0.978);(4.045, 4.707, -27.439);0.86;(30.719, 4.122, -27.936);(-0.321, -0.134, 0.938);(0.545, 0.477, 0.000);4.06;0.96;(-31.527, 5.488, -26.777);(0.058, -0.132, 0.989);(0.525, 0.408, 0.000);4.33
1;1;conv2_3x3_6-14-36;NoAnomalies;0;3.859;(-0.103, 1.248, 0.086);(355.137, 0.365, 2.243);(-0.313, -0.053, 0.948);(8.964, 4.878, -27.123);0.87;(30.018, 4.373, -27.344);(-0.434, -0.047, 0.900);(0.588, 0.450, 0.000);4.03;0.97;(-31.981, 5.858, -26.694);(-0.061, -0.062, 0.996);(0.560, 0.384, 0.000);4.41
1;1;conv2_3x3_6-14-36;NoAnomalies;0;3.884;(-0.103, 1.247, 0.085);(355.512, 0.248, 2.508);(-0.081, -0.059, 0.995);(-31.789, 5.784, -26.316);1.00;(30.131, 4.492, -26.612);(-0.456, -0.043, 0.889);(0.587, 0.439, 0.000);4.06;1.00;(-31.921, 5.787, -26.316);(-0.080, -0.059, 0.995);(0.561, 0.383, 0.000);4.31
1;1;conv2_3x3_6-14-36;NoAnomalies;0;3.909;(-0.104, 1.247, 0.083);(356.048, 0.555, 2.561);(-0.077, -0.066, 0.995);(-31.570, 5.858, -26.185);1.00;(30.498, 4.840, -26.619);(-0.464, -0.045, 0.885);(0.576, 0.428, 0.000);4.00;1.00;(-31.575, 5.858, -26.185);(-0.077, -0.066, 0.995);(0.549, 0.380, 0.000);4.33
1;1;conv2_3x3_6-14-36;NoAnomalies;0;3.933;(-0.104, 1.247, 0.081);(356.276, 0.709, 2.849);(-0.081, -0.053, 0.995);(-30.217, 5.870, -26.175);1.00;(30.575, 5.093, -26.983);(-0.469, -0.036, 0.882);(0.575, 0.421, 0.000);3.85;1.00;(-31.510, 5.886, -26.158);(-0.073, -0.053, 0.996);(0.546, 0.377, 0.000);4.14
1;1;conv2_3x3_6-14-36;NoAnomalies;0;3.958;(-0.106, 1.247, 0.078);(355.961, 0.973, 3.264);(-0.113, -0.058, 0.992);(-24.939, 5.760, -26.075);1.00;(30.409, 5.179, -27.051);(-0.456, -0.031, 0.890);(0.579, 0.418, 0.000);3.71;1.00;(-31.659, 5.831, -25.956);(-0.070, -0.061, 0.996);(0.550, 0.378, 0.000);4.07
1;1;conv2_3x3_6-14-36;NoAnomalies;0;3.982;(-0.107, 1.248, 0.077);(355.505, 0.988, 3.180);(-0.165, -0.049, 0.985);(-16.968, 5.853, -26.337);1.00;(30.272, 5.336, -27.021);(-0.455, -0.036, 0.890);(0.583, 0.413, 0.000);3.74;1.00;(-31.751, 6.015, -26.122);(-0.071, -0.052, 0.996);(0.553, 0.372, 0.000);4.03
1;1;conv2_3x3_6-14-36;NoAnomalies;0;4.009;(-0.108, 1.248, 0.075);(355.144, 1.002, 3.368);(-0.323, -0.051, 0.945);(8.744, 5.678, -26.735);1.00;(30.234, 5.405, -27.062);(-0.452, -0.044, 0.891);(0.584, 0.412, 0.000);3.54;1.00;(-31.827, 6.195, -26.117);(-0.064, -0.062, 0.996);(0.555, 0.368, 0.000);3.86
1;1;conv2_3x3_6-14-36;NoAnomalies;0;4.034;(-0.110, 1.249, 0.074);(354.690, 0.991, 3.659);(-0.291, -0.062, 0.955);(3.955, 5.793, -26.917);1.00;(30.133, 5.415, -27.346);(-0.446, -0.057, 0.893);(0.587, 0.416, 0.000);3.39;1.00;(-31.908, 6.309, -26.328);(-0.065, -0.066, 0.996);(0.557, 0.366, 0.000);3.76
1;1;conv2_3x3_6-14-36;NoAnomalies;0;4.058;(-0.111, 1.249, 0.072);(354.277, 0.955, 3.981);(-0.058, -0.073, 0.996);(-30.746, 6.448, -26.497);1.00;(30.038, 5.582, -27.656);(-0.456, -0.049, 0.888);(0.592, 0.412, 0.000);3.58;1.00;(-32.007, 6.466, -26.473);(-0.049, -0.073, 0.996);(0.558, 0.363, 0.000);3.64
1;1;conv2_3x3_6-14-36;NoAnomalies;0;4.083;(-0.113, 1.250, 0.070);(353.586, 0.572, 4.295);(-0.054, -0.076, 0.996);(-31.894, 6.340, -25.852);1.00;(30.032, 5.848, -28.409);(-0.443, -0.056, 0.895);(0.590, 0.410, 0.000);3.41;1.00;(-31.905, 6.340, -25.852);(-0.054, -0.076, 0.996);(0.555, 0.363, 0.000);3.65
1;1;conv2_3x3_6-14-36;NoAnomalies;0;4.106;(-0.114, 1.251, 0.069);(353.045, 0.023, 4.204);(-0.051, -0.094, 0.994);(-31.831, 6.284, -26.181);1.00;(30.075, 5.858, -28.565);(-0.447, -0.063, 0.892);(0.590, 0.412, 0.000);3.40;1.00;(-31.839, 6.284, -26.181);(-0.050, -0.094, 0.994);(0.553, 0.371, 0.000);3.58
1;1;conv2_3x3_6-14-36;NoAnomalies;0;4.130;(-0.115, 1.252, 0.067);(352.756, 359.406, 4.077);(-0.054, -0.089, 0.995);(-31.882, 6.208, -26.219);1.00;(30.007, 6.039, -29.498);(-0.437, -0.092, 0.895);(0.591, 0.418, 0.000);3.22;1.00;(-31.914, 6.208, -26.218);(-0.054, -0.089, 0.995);(0.556, 0.372, 0.000);3.59
1;1;conv2_3x3_6-14-36;NoAnomalies;0;4.154;(-0.116, 1.252, 0.066);(352.556, 358.814, 4.073);(-0.050, -0.104, 0.993);(-32.000, 6.193, -26.018);0.95;(29.972, 5.940, -29.163);(-0.458, -0.098, 0.883);(0.596, 0.420, 0.000);3.32;0.99;(-32.004, 6.193, -26.018);(-0.050, -0.104, 0.993);(0.558, 0.374, 0.000);3.55
1;1;conv2_3x3_6-14-36;NoAnomalies;0;4.179;(-0.117, 1.252, 0.065);(352.206, 358.293, 4.098);(-0.063, -0.110, 0.992);(-32.070, 6.341, -26.439);0.92;(29.911, 6.283, -30.329);(-0.451, -0.108, 0.886);(0.597, 0.420, 0.000);3.23;0.91;(-32.079, 6.341, -26.439);(-0.063, -0.110, 0.992);(0.563, 0.374, 0.000);3.47
1;1;conv2_3x3_6-14-36;NoAnomalies;0;4.204;(-0.119, 1.252, 0.064);(351.723, 357.363, 4.095);(-1.000, -1.000, -1.000);(-1.000, -1.000, -1.000);0.73;(30.742, 6.425, -30.242);(0.000, 0.000, 0.000);(0.548, 0.414, 0.000);-1.00;0.41;(-31.358, 6.603, -26.713);(0.000, 0.000, 0.000);(0.517, 0.367, 0.000);-1.00
1;1;conv2_3x3_6-14-36;NoAnomalies;0;4.228;(-0.120, 1.252, 0.063);(351.601, 356.421, 4.128);(-1.000, -1.000, -1.000);(-1.000, -1.000, -1.000);0.27;(30.969, 5.609, -28.383);(0.000, 0.000, 0.000);(-1.000, -1.000, 0.000);-1.00;0.00;(-30.790, 6.818, -26.354);(0.000, 0.000, 0.000);(0.433, 0.414, 0.000);-1.00
1;1;conv2_3x3_6-14-36;NoAnomalies;0;4.253;(-0.121, 1.252, 0.062);(351.633, 355.490, 4.184);(-1.000, -1.000, -1.000);(-1.000, -1.000, -1.000);0.03;(30.969, 5.609, -28.383);(0.000, 0.000, 0.000);(-1.000, -1.000, 0.000);-1.00;0.00;(-30.790, 6.818, -26.354);(0.000, 0.000, 0.000);(0.435, 0.418, 0.000);-1.00
1;1;conv2_3x3_6-14-36;NoAnomalies;0;4.280;(-0.121, 1.252, 0.062);(351.698, 354.619, 4.163);(-1.000, -1.000, -1.000);(-1.000, -1.000, -1.000);0.08;(30.969, 5.609, -28.383);(0.000, 0.000, 0.000);(0.561, 0.441, 0.000);-1.00;0.00;(-30.463, 6.654, -26.108);(0.000, 0.000, 0.000);(0.485, 0.408, 0.000);-1.00
1;1;conv2_3x3_6-14-36;NoAnomalies;0;4.303;(-0.123, 1.251, 0.062);(351.666, 353.293, 3.959);(-1.000, -1.000, -1.000);(-1.000, -1.000, -1.000);0.43;(31.486, 6.596, -30.077);(0.000, 0.000, 0.000);(0.503, 0.409, 0.000);-1.00;0.11;(-30.493, 6.735, -27.117);(0.000, 0.000, 0.000);(0.470, 0.362, 0.000);-1.00
1;1;conv2_3x3_6-14-36;NoAnomalies;0;4.327;(-0.123, 1.251, 0.062);(351.742, 352.432, 3.728);(0.144, -0.121, 0.982);(-27.691, 6.570, -27.002);0.60;(31.384, 6.353, -29.414);(-0.225, -0.100, 0.969);(0.508, 0.408, 0.000);3.10;0.31;(-30.612, 6.581, -26.883);(0.162, -0.121, 0.979);(0.475, 0.370, 0.000);3.09
1;1;conv2_3x3_6-14-36;NoAnomalies;0;4.353;(-0.124, 1.250, 0.063);(351.914, 351.559, 3.666);(0.134, -0.099, 0.986);(-30.072, 6.588, -26.985);0.77;(31.317, 6.355, -29.855);(-0.252, -0.117, 0.961);(0.515, 0.414, 0.000);2.92;0.60;(-30.695, 6.591, -26.956);(0.138, -0.099, 0.985);(0.482, 0.367, 0.000);3.21
1;1;conv2_3x3_6-14-36;NoAnomalies;0;4.377;(-0.125, 1.250, 0.064);(351.984, 350.724, 3.677);(0.053, -0.089, 0.995);(-18.223, 6.538, -27.481);0.83;(31.297, 6.438, -30.361);(-0.268, -0.082, 0.960);(0.518, 0.409, 0.000);3.09;0.72;(-30.777, 6.563, -26.751);(0.133, -0.089, 0.987);(0.486, 0.364, 0.000);3.34
1;1;conv2_3x3_6-14-36;NoAnomalies;0;4.411;(-0.127, 1.249, 0.065);(351.912, 349.439, 3.667);(0.110, -0.091, 0.990);(-29.615, 6.489, -26.633);0.87;(31.240, 6.388, -30.241);(-0.289, -0.082, 0.954);(0.523, 0.410, 0.000);3.04;0.87;(-30.843, 6.491, -26.560);(0.118, -0.091, 0.989);(0.491, 0.366, 0.000);3.38
1;1;conv2_3x3_6-14-36;NoAnomalies;0;4.435;(-0.128, 1.249, 0.066);(351.967, 348.650, 3.634);(0.103, -0.100, 0.990);(-30.952, 6.425, -26.572);0.92;(31.070, 5.940, -28.475);(-0.289, -0.082, 0.954);(0.529, 0.411, 0.000);3.10;0.95;(-30.952, 6.425, -26.572);(0.103, -0.100, 0.990);(0.497, 0.369, 0.000);3.28
1;1;conv2_3x3_6-14-36;NoAnomalies;0;4.458;(-0.130, 1.248, 0.068);(352.174, 347.605, 3.592);(0.080, -0.095, 0.992);(-31.030, 6.422, -26.719);0.94;(30.994, 5.926, -28.409);(-0.299, -0.093, 0.950);(0.533, 0.413, 0.000);2.95;1.00;(-31.030, 6.422, -26.719);(0.080, -0.095, 0.992);(0.503, 0.370, 0.000);3.32
1;1;conv2_3x3_6-14-36;NoAnomalies;0;4.482;(-0.131, 1.247, 0.070);(352.518, 347.077, 3.550);(0.079, -0.084, 0.993);(-31.003, 6.283, -26.291);1.00;(30.907, 6.011, -28.643);(-0.314, -0.090, 0.945);(0.539, 0.411, 0.000);3.11;1.00;(-31.164, 6.284, -26.285);(0.080, -0.084, 0.993);(0.508, 0.369, 0.000);3.46
1;1;conv2_3x3_6-14-36;NoAnomalies;0;4.507;(-0.133, 1.246, 0.071);(352.906, 346.731, 3.396);(-0.310, -0.084, 0.947);(28.006, 5.993, -28.466);1.00;(30.894, 5.980, -28.565);(-0.327, -0.084, 0.941);(0.541, 0.411, 0.000);3.10;1.00;(-31.191, 6.273, -26.428);(0.072, -0.081, 0.994);(0.510, 0.370, 0.000);3.43
1;1;conv2_3x3_6-14-36;NoAnomalies;0;4.533;(-0.135, 1.246, 0.073);(353.209, 346.417, 3.186);(0.040, -0.081, 0.996);(-13.506, 6.357, -27.591);1.00;(31.330, 6.172, -29.209);(-0.248, -0.082, 0.965);(0.513, 0.409, 0.000);3.10;1.00;(-30.637, 6.427, -26.973);(0.149, -0.079, 0.986);(0.479, 0.369, 0.000);3.38
1;1;conv2_3x3_6-14-36;NoAnomalies;0;4.558;(-0.137, 1.245, 0.074);(353.461, 345.921, 3.020);(0.131, -0.074, 0.989);(-30.593, 6.474, -26.785);1.00;(31.395, 6.461, -30.431);(-0.274, -0.076, 0.959);(0.515, 0.408, 0.000);3.13;1.00;(-30.593, 6.474, -26.785);(0.131, -0.074, 0.989);(0.480, 0.365, 0.000);3.56
1;1;conv2_3x3_6-14-36;NoAnomalies;0;4.582;(-0.140, 1.244, 0.076);(353.733, 345.170, 2.784);(0.128, -0.066, 0.990);(-30.618, 6.211, -25.566);1.00;(31.293, 6.063, -29.000);(-0.265, -0.068, 0.962);(0.517, 0.409, 0.000);3.25;1.00;(-30.722, 6.211, -25.560);(0.129, -0.066, 0.989);(0.485, 0.363, 0.000);3.46
1;1;conv2_3x3_6-14-36;NoAnomalies;0;4.607;(-0.143, 1.244, 0.078);(354.054, 344.645, 2.871);(-0.250, -0.067, 0.966);(27.805, 5.974, -28.898);1.00;(31.285, 5.954, -29.080);(-0.271, -0.067, 0.960);(0.519, 0.413, 0.000);3.20;1.00;(-30.770, 6.317, -25.840);(0.126, -0.064, 0.990);(0.487, 0.361, 0.000);3.49
1;1;conv2_3x3_6-14-36;NoAnomalies;0;4.631;(-0.146, 1.243, 0.079);(354.461, 344.077, 3.122);(-0.279, -0.064, 0.958);(31.166, 5.871, -28.860);1.00;(31.211, 5.871, -28.862);(-0.279, -0.064, 0.958);(0.523, 0.413, 0.000);3.11;1.00;(-30.827, 6.353, -26.004);(0.111, -0.056, 0.992);(0.492, 0.360, 0.000);3.50
1;1;conv2_3x3_6-14-36;NoAnomalies;0;4.655;(-0.149, 1.242, 0.080);(354.907, 343.595, 3.361);(0.109, -0.052, 0.993);(-30.440, 6.342, -25.775);1.00;(31.051, 5.712, -27.744);(-0.287, -0.051, 0.957);(0.529, 0.408, 0.000);3.23;1.00;(-31.014, 6.348, -25.756);(0.112, -0.052, 0.992);(0.498, 0.358, 0.000);3.49
1;1;conv2_3x3_6-14-36;NoAnomalies;0;4.679;(-0.151, 1.241, 0.082);(355.258, 343.158, 3.427);(0.102, -0.043, 0.994);(-31.179, 6.385, -25.727);1.00;(30.934, 5.678, -27.111);(-0.296, -0.041, 0.954);(0.534, 0.402, 0.000);3.29;1.00;(-31.179, 6.385, -25.727);(0.102, -0.043, 0.994);(0.505, 0.354, 0.000);3.45
1;1;conv2_3x3_6-14-36;NoAnomalies;0;4.704;(-0.156, 1.241, 0.084);(355.174, 342.371, 2.812);(0.094, -0.049, 0.994);(-31.229, 6.161, -25.682);1.00;(30.899, 5.430, -26.975);(-0.296, -0.043, 0.954);(0.535, 0.410, 0.000);3.38;1.00;(-31.230, 6.161, -25.682);(0.094, -0.049, 0.994);(0.508, 0.363, 0.000);3.41
1;1;conv2_3x3_6-14-36;NoAnomalies;0;4.729;(-0.157, 1.241, 0.084);(354.942, 342.547, 2.390);(0.072, -0.048, 0.996);(-29.058, 5.854, -26.073);1.00;(30.991, 5.118, -27.650);(-0.299, -0.050, 0.953);(0.533, 0.426, 0.000);3.24;1.00;(-31.186, 5.880, -26.017);(0.085, -0.047, 0.995);(0.508, 0.374, 0.000);3.47
1;1;conv2_3x3_6-14-36;NoAnomalies;0;4.754;(-0.158, 1.241, 0.085);(354.819, 342.886, 2.111);(-0.195, -0.057, 0.979);(12.534, 4.910, -27.012);1.00;(30.983, 4.582, -27.429);(-0.310, -0.060, 0.949);(0.535, 0.444, 0.000);3.27;1.00;(-31.211, 5.688, -26.025);(0.089, -0.046, 0.995);(0.508, 0.380, 0.000);3.46
1;1;conv2_3x3_6-14-36;NoAnomalies;0;4.779;(-0.159, 1.241, 0.086);(354.870, 343.131, 2.044);(-0.297, -0.038, 0.954);(29.667, 4.268, -27.647);1.00;(31.079, 4.242, -27.699);(-0.306, -0.038, 0.951);(0.531, 0.454, 0.000);3.24;1.00;(-31.172, 5.389, -25.416);(0.093, -0.042, 0.995);(0.506, 0.385, 0.000);3.44
1;1;conv2_3x3_6-14-36;NoAnomalies;0;4.803;(-0.162, 1.241, 0.087);(354.946, 343.587, 1.855);(-0.305, -0.055, 0.951);(31.027, 3.929, -27.908);1.00;(31.155, 3.926, -27.913);(-0.306, -0.055, 0.950);(0.528, 0.469, 0.000);3.31;1.00;(-31.093, 5.188, -25.482);(0.098, -0.047, 0.994);(0.503, 0.393, 0.000);3.42
1;1;conv2_3x3_6-14-36;NoAnomalies;0;4.826;(-0.162, 1.241, 0.087);(355.083, 343.660, 1.758);(-0.269, -0.048, 0.962);(26.198, 3.822, -27.975);1.00;(31.208, 3.712, -28.166);(-0.299, -0.048, 0.953);(0.525, 0.477, 0.000);3.18;1.00;(-31.048, 5.071, -25.795);(0.099, -0.047, 0.994);(0.501, 0.399, 0.000);3.40
1;1;conv2_3x3_6-14-36;NoAnomalies;0;4.850;(-0.163, 1.241, 0.087);(355.873, 344.012, 1.108);(-0.248, -0.047, 0.968);(23.511, 3.336, -28.156);1.00;(31.191, 3.126, -28.382);(-0.294, -0.046, 0.955);(0.525, 0.499, 0.000);3.18;1.00;(-31.021, 4.827, -26.550);(0.096, -0.054, 0.994);(0.500, 0.414, 0.000);3.39
1;1;conv2_3x3_6-14-36;NoAnomalies;0;4.885;(-0.164, 1.241, 0.088);(355.633, 344.251, 0.865);(-0.045, 0.031, 0.999);(-17.863, 3.480, -26.761);1.00;(31.013, 1.028, -29.239);(-0.366, 0.228, 0.902);(0.543, 0.531, 0.000);3.20;1.00;(-31.314, 4.155, -26.079);(0.045, -0.024, 0.999);(0.519, 0.427, 0.000);3.30
1;1;conv2_3x3_6-14-36;NoAnomalies;0;4.911;(-0.165, 1.241, 0.089);(355.760, 344.419, 0.523);(-0.082, -0.014, 0.997);(-29.742, 3.790, -26.429);1.00;(30.208, 2.680, -28.682);(-0.521, -0.258, 0.814);(0.598, 0.555, 0.000);3.23;1.00;(-32.235, 3.836, -26.335);(-0.063, -0.004, 0.998);(0.568, 0.437, 0.000);3.39
1;1;conv2_3x3_6-14-36;NoAnomalies;0;4.935;(-0.165, 1.241, 0.089);(355.955, 344.805, 0.256);(-0.117, 0.008, 0.993);(-32.941, 3.421, -26.552);1.00;(28.869, 0.607, -29.386);(-0.454, 0.005, 0.891);(0.632, 0.586, 0.000);3.23;1.00;(-32.948, 3.421, -26.551);(-0.117, 0.008, 0.993);(0.601, 0.451, 0.000);3.36
1;1;conv2_3x3_6-14-36;NoAnomalies;0;4.959;(-0.165, 1.240, 0.089);(356.303, 345.499, 359.988);(-0.116, 0.000, 0.993);(-33.193, 2.931, -26.692);1.00;(29.524, 1.243, -29.277);(0.000, 0.000, 0.000);(0.638, 0.611, 0.000);-1.00;1.00;(-33.193, 2.931, -26.692);(-0.116, 0.000, 0.993);(0.609, 0.470, 0.000);3.32
1;1;conv2_3x3_6-14-36;NoAnomalies;0;4.984;(-0.164, 1.240, 0.089);(356.781, 346.115, 359.644);(-0.112, 0.009, 0.994);(-32.714, 2.466, -26.821);1.00;(28.491, -0.542, -29.853);(-0.439, 0.009, 0.898);(0.643, 0.629, 0.000);3.28;1.00;(-33.342, 2.497, -26.790);(-0.108, 0.009, 0.994);(0.613, 0.483, 0.000);3.31
1;1;conv2_3x3_6-14-36;NoAnomalies;0;5.010;(-0.163, 1.240, 0.089);(356.907, 346.675, 359.744);(-0.101, 0.004, 0.995);(-32.146, 2.351, -26.836);1.00;(29.225, 0.764, -29.404);(-0.551, -0.260, 0.793);(0.638, 0.629, 0.000);3.22;1.00;(-33.277, 2.380, -26.789);(-0.093, 0.009, 0.996);(0.608, 0.487, 0.000);3.40
1;1;conv2_3x3_6-14-36;NoAnomalies;0;5.035;(-0.161, 1.239, 0.088);(357.358, 347.212, 359.856);(-0.090, -0.194, 0.977);(-30.199, 3.463, -26.594);1.00;(28.751, -0.029, -29.508);(-0.424, 0.001, 0.906);(0.631, 0.609, 0.000);3.14;1.00;(-33.234, 3.643, -26.444);(-0.073, -0.203, 0.976);(0.603, 0.479, 0.000);3.44
1;1;conv2_3x3_6-14-36;NoAnomalies;0;5.059;(-0.158, 1.239, 0.087);(357.767, 348.159, 0.173);(-0.077, 0.024, 0.997);(-32.454, 2.875, -26.646);1.00;(29.764, 2.338, -28.752);(-0.537, -0.282, 0.795);(0.616, 0.573, 0.000);3.12;1.00;(-32.982, 2.879, -26.628);(-0.073, 0.027, 0.997);(0.595, 0.466, 0.000);3.39
1;1;conv2_3x3_6-14-36;NoAnomalies;0;5.082;(-0.156, 1.239, 0.086);(357.671, 348.696, 0.826);(-0.066, 0.028, 0.997);(-32.665, 3.251, -26.454);1.00;(29.506, 0.348, -23.882);(-0.434, 0.059, 0.899);(0.602, 0.535, 0.000);3.24;1.00;(-32.665, 3.251, -26.454);(-0.066, 0.028, 0.997);(0.583, 0.452, 0.000);3.40
1;1;conv2_3x3_6-14-36;NoAnomalies;0;5.107;(-0.155, 1.239, 0.085);(357.697, 349.162, 1.078);(-0.045, 0.022, 0.999);(-32.362, 3.733, -26.659);1.00;(29.925, 1.285, -23.271);(-0.441, 0.055, 0.896);(0.589, 0.500, 0.000);3.44;1.00;(-32.362, 3.733, -26.659);(-0.045, 0.022, 0.999);(0.569, 0.439, 0.000);3.36
1;1;conv2_3x3_6-14-36;NoAnomalies;0;5.133;(-0.153, 1.239, 0.084);(357.635, 349.682, 1.050);(-0.052, 0.035, 0.998);(-32.076, 3.898, -25.867);1.00;(30.189, 2.292, -23.775);(-0.431, 0.050, 0.901);(0.580, 0.472, 0.000);3.29;1.00;(-32.076, 3.898, -25.867);(-0.052, 0.035, 0.998);(0.561, 0.425, 0.000);3.48
1;1;conv2_3x3_6-14-36;NoAnomalies;0;5.156;(-0.152, 1.239, 0.083);(357.528, 350.163, 0.952);(-0.426, 0.041, 0.904);(30.320, 2.774, -23.947);1.00;(30.326, 2.774, -23.946);(-0.426, 0.041, 0.904);(0.575, 0.459, 0.000);3.31;1.00;(-32.057, 4.649, -27.219);(-0.021, 0.019, 1.000);(0.555, 0.413, 0.000);3.43
1;1;conv2_3x3_6-14-36;NoAnomalies;0;5.181;(-0.151, 1.239, 0.082);(357.438, 350.622, 0.955);(-0.471, 0.020, 0.882);(30.045, 2.732, -23.660);1.00;(30.046, 2.732, -23.659);(-0.471, 0.020, 0.882);(0.591, 0.462, 0.000);3.33;1.00;(-32.209, 4.800, -27.274);(-0.066, -0.003, 0.998);(0.568, 0.413, 0.000);3.55
1;1;conv2_3x3_6-14-36;NoAnomalies;0;5.206;(-0.149, 1.239, 0.081);(357.245, 351.445, 1.064);(-0.126, -0.035, 0.991);(-31.181, 4.781, -27.394);1.00;(29.576, 3.271, -25.703);(-0.492, -0.025, 0.870);(0.612, 0.469, 0.000);3.40;1.00;(-32.542, 4.815, -27.431);(-0.117, -0.035, 0.992);(0.588, 0.419, 0.000);3.37
1;1;conv2_3x3_6-14-36;NoAnomalies;0;5.231;(-0.148, 1.239, 0.080);(357.083, 352.175, 1.191);(-0.103, -0.027, 0.994);(-32.503, 4.929, -27.301);1.00;(29.703, 3.221, -24.960);(-0.488, -0.013, 0.873);(0.606, 0.462, 0.000);3.36;1.00;(-32.503, 4.929, -27.301);(-0.103, -0.027, 0.994);(0.584, 0.413, 0.000);3.44
1;1;conv2_3x3_6-14-36;NoAnomalies;0;5.254;(-0.147, 1.239, 0.079);(356.864, 352.938, 1.337);(-0.095, -0.029, 0.995);(-32.362, 4.958, -26.875);1.00;(29.872, 3.252, -24.598);(-0.487, -0.015, 0.873);(0.601, 0.459, 0.000);3.34;1.00;(-32.365, 4.958, -26.875);(-0.095, -0.029, 0.995);(0.578, 0.409, 0.000);3.58
1;1;conv2_3x3_6-14-36;NoAnomalies;0;5.280;(-0.146, 1.240, 0.079);(356.654, 353.584, 1.491);(-0.096, -0.035, 0.995);(-30.102, 5.025, -26.865);1.00;(29.996, 3.454, -25.059);(-0.470, -0.014, 0.883);(0.594, 0.456, 0.000);3.43;1.00;(-32.249, 5.081, -26.929);(-0.082, -0.036, 0.996);(0.572, 0.406, 0.000);3.57
1;1;conv2_3x3_6-14-36;NoAnomalies;0;5.304;(-0.145, 1.240, 0.077);(356.367, 354.479, 1.648);(-0.106, -0.037, 0.994);(-26.533, 4.929, -26.676);1.00;(30.111, 3.642, -25.511);(-0.460, -0.031, 0.887);(0.588, 0.456, 0.000);3.41;1.00;(-32.175, 5.057, -26.792);(-0.070, -0.037, 0.997);(0.567, 0.406, 0.000);3.40
1;1;conv2_3x3_6-14-36;NoAnomalies;0;5.329;(-0.144, 1.241, 0.076);(356.168, 355.042, 1.751);(-0.066, -0.036, 0.997);(-31.937, 5.059, -26.733);1.00;(30.213, 3.749, -25.728);(-0.455, -0.029, 0.890);(0.584, 0.454, 0.000);3.36;1.00;(-32.066, 5.061, -26.735);(-0.065, -0.036, 0.997);(0.563, 0.405, 0.000);3.50
1;1;conv2_3x3_6-14-36;NoAnomalies;0;5.354;(-0.144, 1.241, 0.076);(355.951, 355.524, 1.949);(-0.061, -0.048, 0.997);(-31.447, 5.068, -26.633);1.00;(30.273, 3.810, -25.874);(-0.443, -0.033, 0.896);(0.580, 0.453, 0.000);3.34;1.00;(-31.967, 5.079, -26.639);(-0.058, -0.048, 0.997);(0.558, 0.406, 0.000);3.60
1;1;conv2_3x3_6-14-36;NoAnomalies;0;5.379;(-0.144, 1.241, 0.075);(355.770, 355.983, 2.177);(-0.086, -0.047, 0.995);(-24.913, 4.962, -26.598);1.00;(30.301, 3.882, -25.979);(-0.433, -0.031, 0.901);(0.578, 0.452, 0.000);3.37;1.00;(-31.932, 5.100, -26.677);(-0.041, -0.049, 0.998);(0.554, 0.406, 0.000);3.67
1;1;conv2_3x3_6-14-36;NoAnomalies;0;5.403;(-0.143, 1.242, 0.073);(355.364, 356.838, 2.477);(-0.181, -0.043, 0.982);(-8.873, 4.616, -26.275);1.00;(30.331, 3.933, -26.077);(-0.420, -0.027, 0.907);(0.575, 0.450, 0.000);3.36;1.00;(-31.880, 5.018, -26.391);(-0.036, -0.051, 0.998);(0.552, 0.407, 0.000);3.68
1;1;conv2_3x3_6-14-36;NoAnomalies;0;5.426;(-0.143, 1.242, 0.073);(355.295, 356.891, 2.433);(-0.354, -0.041, 0.935);(18.927, 4.170, -26.308);1.00;(30.417, 3.992, -26.310);(-0.420, -0.038, 0.907);(0.572, 0.452, 0.000);3.36;1.00;(-31.816, 4.953, -26.301);(-0.038, -0.050, 0.998);(0.550, 0.408, 0.000);3.63
1;1;conv2_3x3_6-14-36;NoAnomalies;0;5.461;(-0.142, 1.242, 0.071);(355.002, 357.340, 2.399);(-0.124, -0.052, 0.991);(-15.805, 4.733, -26.417);1.00;(30.410, 4.125, -26.622);(-0.401, -0.049, 0.915);(0.569, 0.452, 0.000);3.41;1.00;(-31.800, 4.943, -26.347);(-0.025, -0.052, 0.998);(0.547, 0.409, 0.000);3.66
1;1;conv2_3x3_6-14-36;NoAnomalies;0;5.486;(-0.142, 1.243, 0.071);(354.677, 357.751, 2.340);(-0.035, -0.056, 0.998);(-29.871, 4.911, -26.291);1.00;(30.409, 4.160, -26.665);(-0.398, -0.049, 0.916);(0.568, 0.451, 0.000);3.41;1.00;(-31.806, 4.935, -26.279);(-0.023, -0.056, 0.998);(0.547, 0.409, 0.000);3.69
1;1;conv2_3x3_6-14-36;NoAnomalies;0;5.511;(-0.141, 1.244, 0.070);(354.329, 358.216, 2.291);(-0.045, -0.056, 0.997);(-27.846, 4.888, -26.352);1.00;(30.437, 4.101, -26.572);(-0.386, -0.051, 0.921);(0.565, 0.452, 0.000);3.44;1.00;(-31.807, 4.941, -26.337);(-0.022, -0.056, 0.998);(0.547, 0.410, 0.000);3.68
1;1;conv2_3x3_6-14-36;NoAnomalies;0;5.535;(-0.141, 1.244, 0.069);(354.014, 358.645, 2.174);(-0.123, -0.069, 0.990);(-23.065, 4.851, -26.555);1.00;(30.129, 4.218, -27.055);(-0.442, -0.054, 0.896);(0.585, 0.453, 0.000);3.51;1.00;(-32.006, 4.957, -26.471);(-0.068, -0.070, 0.995);(0.561, 0.413, 0.000);3.65
1;1;conv2_3x3_6-14-36;NoAnomalies;0;5.559;(-0.140, 1.245, 0.067);(353.474, 359.212, 1.972);(-0.137, -0.070, 0.988);(-24.573, 4.846, -26.491);1.00;(29.899, 4.182, -26.962);(-0.463, -0.061, 0.884);(0.597, 0.455, 0.000);3.44;1.00;(-32.216, 4.939, -26.425);(-0.090, -0.070, 0.993);(0.572, 0.413, 0.000);3.73
1;1;conv2_3x3_6-14-36;NoAnomalies;0;5.583;(-0.140, 1.246, 0.066);(353.036, 359.582, 1.883);(-0.106, -0.076, 0.992);(-29.457, 4.933, -26.560);1.00;(29.969, 4.137, -27.045);(-0.468, -0.075, 0.880);(0.595, 0.460, 0.000);3.48;1.00;(-32.182, 4.969, -26.537);(-0.089, -0.075, 0.993);(0.571, 0.414, 0.000);3.75
1;1;conv2_3x3_6-14-36;NoAnomalies;0;5.608;(-0.139, 1.247, 0.066);(352.550, 359.956, 1.834);(-0.243, -0.081, 0.967);(-6.815, 4.627, -26.727);1.00;(29.980, 4.128, -27.023);(-0.464, -0.074, 0.883);(0.594, 0.459, 0.000);3.45;1.00;(-32.180, 4.971, -26.523);(-0.083, -0.083, 0.993);(0.570, 0.415, 0.000);3.73
1;1;conv2_3x3_6-14-36;NoAnomalies;0;5.633;(-0.139, 1.247, 0.065);(351.965, 0.341, 1.769);(-0.247, -0.089, 0.965);(-3.701, 4.542, -26.639);1.00;(30.057, 4.065, -26.885);(-0.450, -0.079, 0.889);(0.589, 0.461, 0.000);3.42;1.00;(-32.134, 4.943, -26.431);(-0.067, -0.094, 0.993);(0.565, 0.417, 0.000);3.58
1;1;conv2_3x3_6-14-36;NoAnomalies;0;5.657;(-0.138, 1.248, 0.064);(351.416, 0.692, 1.715);(-0.229, -0.103, 0.968);(-5.411, 4.550, -26.735);1.00;(30.112, 4.042, -27.009);(-0.438, -0.096, 0.894);(0.585, 0.466, 0.000);3.39;1.00;(-32.076, 4.930, -26.530);(-0.064, -0.105, 0.992);(0.563, 0.420, 0.000);3.69
1;1;conv2_3x3_6-14-36;NoAnomalies;0;5.680;(-0.138, 1.249, 0.062);(350.642, 1.197, 1.635);(-0.232, -0.107, 0.967);(-4.083, 4.457, -26.634);1.00;(30.167, 3.942, -26.865);(-0.435, -0.097, 0.895);(0.583, 0.468, 0.000);3.37;1.00;(-32.024, 4.878, -26.445);(-0.058, -0.111, 0.992);(0.560, 0.422, 0.000);3.68
1;1;conv2_3x3_6-14-36;NoAnomalies;0;5.705;(-0.137, 1.250, 0.061);(350.178, 1.471, 1.689);(-0.084, -0.113, 0.990);(-26.526, 4.743, -26.454);1.00;(30.184, 4.018, -27.345);(-0.428, -0.113, 0.897);(0.581, 0.472, 0.000);3.35;1.00;(-31.988, 4.813, -26.368);(-0.051, -0.112, 0.992);(0.558, 0.424, 0.000);3.66
1;1;conv2_3x3_6-14-36;NoAnomalies;0;5.729;(-0.137, 1.251, 0.061);(349.770, 1.714, 1.746);(-0.056, -0.127, 0.990);(-29.670, 4.747, -26.390);1.00;(30.214, 4.012, -27.558);(-0.417, -0.117, 0.901);(0.579, 0.475, 0.000);3.31;1.00;(-31.972, 4.775, -26.346);(-0.042, -0.127, 0.991);(0.556, 0.428, 0.000);3.66
1;1;conv2_3x3_6-14-36;NoAnomalies;0;5.754;(-0.137, 1.251, 0.060);(349.428, 1.923, 1.824);(-0.076, -0.134, 0.988);(-25.815, 4.699, -26.678);1.00;(30.266, 3.948, -27.518);(-0.416, -0.139, 0.899);(0.576, 0.480, 0.000);3.42;1.00;(-31.927, 4.781, -26.587);(-0.039, -0.133, 0.990);(0.554, 0.430, 0.000);3.60
1;1;conv2_3x3_6-14-36;NoAnomalies;0;5.779;(-0.137, 1.251, 0.060);(349.197, 2.100, 1.915);(-0.200, -0.140, 0.970);(-5.939, 4.338, -26.779);1.00;(30.327, 3.789, -27.094);(-0.423, -0.136, 0.896);(0.575, 0.482, 0.000);3.44;1.00;(-31.886, 4.731, -26.554);(-0.034, -0.138, 0.990);(0.551, 0.432, 0.000);3.56
1;1;conv2_3x3_6-14-36;NoAnomalies;0;5.805;(-0.137, 1.252, 0.059);(348.838, 2.368, 2.117);(-0.039, -0.142, 0.989);(-30.353, 4.661, -26.498);1.00;(30.344, 3.783, -27.118);(-0.409, -0.145, 0.901);(0.572, 0.484, 0.000);3.30;1.00;(-31.860, 4.683, -26.483);(-0.030, -0.141, 0.989);(0.550, 0.434, 0.000);3.56
1;1;conv2_3x3_6-14-36;NoAnomalies;0;5.829;(-0.138, 1.251, 0.059);(348.913, 2.359, 2.150);(-0.290, -0.051, 0.956);(8.324, 4.508, -26.631);1.00;(30.187, 4.212, -26.927);(-0.419, -0.048, 0.906);(0.580, 0.451, 0.000);3.44;1.00;(-31.779, 5.051, -26.089);(-0.039, -0.055, 0.998);(0.549, 0.404, 0.000);3.70
1;1;conv2_3x3_6-14-36;NoAnomalies;0;5.853;(-0.138, 1.251, 0.058);(348.893, 2.384, 2.206);(-0.112, -0.035, 0.993);(-20.551, 5.081, -26.156);1.00;(30.160, 4.297, -26.475);(-0.425, -0.028, 0.905);(0.581, 0.441, 0.000);3.44;1.00;(-31.802, 5.255, -26.085);(-0.041, -0.036, 0.998);(0.550, 0.394, 0.000);3.73
1;1;conv2_3x3_6-14-36;NoAnomalies;0;5.878;(-0.138, 1.251, 0.058);(348.869, 2.395, 2.266);(-0.070, -0.041, 0.997);(-27.771, 5.079, -25.762);1.00;(30.198, 4.379, -27.076);(-0.422, -0.025, 0.906);(0.580, 0.443, 0.000);3.39;1.00;(-31.817, 5.128, -25.671);(-0.045, -0.042, 0.998);(0.551, 0.396, 0.000);3.68
1;1;conv2_3x3_6-14-36;NoAnomalies;0;5.903;(-0.139, 1.251, 0.058);(348.787, 2.397, 2.403);(-0.201, -0.032, 0.979);(-6.928, 4.818, -26.211);1.00;(30.205, 4.303, -26.787);(-0.422, -0.021, 0.906);(0.580, 0.443, 0.000);3.40;1.00;(-31.842, 5.163, -25.824);(-0.046, -0.038, 0.998);(0.552, 0.395, 0.000);3.74
1;1;conv2_3x3_6-14-36;NoAnomalies;0;5.929;(-0.140, 1.251, 0.058);(348.782, 2.311, 2.406);(-0.131, -0.032, 0.991);(-17.880, 4.910, -25.860);1.00;(30.210, 4.303, -26.793);(-0.420, -0.022, 0.907);(0.579, 0.443, 0.000);3.40;1.00;(-31.855, 5.087, -25.589);(-0.045, -0.034, 0.998);(0.552, 0.395, 0.000);3.73
1;1;conv2_3x3_6-14-36;NoAnomalies;0;5.953;(-0.140, 1.251, 0.058);(348.761, 2.211, 2.415);(-0.301, -0.029, 0.953);(9.651, 4.591, -26.453);1.00;(30.210, 4.349, -26.899);(-0.419, -0.026, 0.908);(0.579, 0.443, 0.000);3.40;1.00;(-31.861, 5.079, -25.551);(-0.048, -0.035, 0.998);(0.553, 0.395, 0.000);3.74
1;1;conv2_3x3_6-14-36;NoAnomalies;0;5.977;(-0.141, 1.251, 0.058);(348.711, 2.068, 2.416);(-0.326, -0.030, 0.945);(13.971, 4.540, -26.529);1.00;(30.210, 4.349, -26.875);(-0.419, -0.027, 0.908);(0.579, 0.443, 0.000);3.40;1.00;(-31.873, 5.079, -25.551);(-0.048, -0.035, 0.998);(0.553, 0.395, 0.000);3.76
1;1;conv2_3x3_6-14-36;NoAnomalies;0;6.001;(-0.141, 1.251, 0.058);(348.661, 1.871, 2.430);(-0.413, -0.034, 0.910);(29.644, 4.421, -26.979);0.93;(30.221, 4.412, -26.983);(-0.416, -0.034, 0.909);(0.578, 0.443, 0.000);3.41;0.84;(-32.016, 5.399, -26.514);(-0.046, -0.046, 0.998);(0.558, 0.394, 0.000);3.69
1;1;conv2_3x3_6-14-36;NoAnomalies;0;6.036;(-0.143, 1.251, 0.059);(348.582, 1.327, 2.520);(-1.000, -1.000, -1.000);(-1.000, -1.000, -1.000);0.10;(30.251, 5.105, -28.866);(0.000, 0.000, 0.000);(0.548, 0.521, 0.000);-1.00;0.00;(-31.017, 4.519, -26.053);(0.000, 0.000, 0.000);(0.497, 0.439, 0.000);-1.00
1;1;conv2_3x3_6-14-36;NoAnomalies;0;6.059;(-0.144, 1.251, 0.059);(348.550, 0.946, 2.594);(-1.000, -1.000, -1.000);(-1.000, -1.000, -1.000);0.07;(30.251, 5.105, -28.866);(0.000, 0.000, 0.000);(0.576, 0.505, 0.000);-1.00;0.00;(-31.161, 5.228, -25.893);(0.000, 0.000, 0.000);(0.503, 0.459, 0.000);-1.00
1;1;conv2_3x3_6-14-36;NoAnomalies;0;6.084;(-0.145, 1.251, 0.060);(348.558, 0.546, 2.680);(-1.000, -1.000, -1.000);(-1.000, -1.000, -1.000);0.26;(31.302, 4.279, -26.533);(0.000, 0.000, 0.000);(0.541, 0.512, 0.000);-1.00;0.00;(-31.124, 5.143, -26.723);(0.000, 0.000, 0.000);(0.511, 0.439, 0.000);-1.00
1;1;conv2_3x3_6-14-36;NoAnomalies;0;6.109;(-0.146, 1.251, 0.060);(348.671, 0.161, 2.748);(-1.000, -1.000, -1.000);(-1.000, -1.000, -1.000);0.40;(30.872, 4.467, -28.377);(0.000, 0.000, 0.000);(0.540, 0.482, 0.000);-1.00;0.14;(-31.213, 5.174, -27.421);(0.000, 0.000, 0.000);(0.507, 0.435, 0.000);-1.00
1;1;conv2_3x3_6-14-36;NoAnomalies;0;6.133;(-0.147, 1.250, 0.061);(348.814, 359.816, 2.771);(0.044, -0.156, 0.987);(-26.771, 4.983, -27.080);0.58;(30.824, 4.336, -28.041);(-0.305, -0.162, 0.939);(0.539, 0.475, 0.000);3.35;0.38;(-31.274, 5.033, -27.005);(0.071, -0.155, 0.985);(0.513, 0.429, 0.000);3.54
1;1;conv2_3x3_6-14-36;NoAnomalies;0;6.157;(-0.148, 1.250, 0.061);(349.023, 359.510, 2.790);(0.050, -0.155, 0.987);(-30.097, 5.009, -27.196);0.65;(30.766, 4.191, -27.606);(-0.320, -0.162, 0.934);(0.543, 0.477, 0.000);3.36;0.46;(-31.338, 5.026, -27.187);(0.057, -0.155, 0.986);(0.518, 0.431, 0.000);3.62
1;1;conv2_3x3_6-14-36;NoAnomalies;0;6.181;(-0.150, 1.249, 0.062);(349.532, 359.007, 2.886);(-0.091, -0.166, 0.982);(-7.074, 4.548, -26.689);0.71;(30.717, 4.086, -27.218);(-0.323, -0.169, 0.931);(0.545, 0.478, 0.000);3.30;0.52;(-31.453, 4.847, -26.348);(0.061, -0.160, 0.985);(0.521, 0.431, 0.000);3.53
1;1;conv2_3x3_6-14-36;NoAnomalies;0;6.205;(-0.150, 1.249, 0.063);(349.635, 358.944, 2.941);(-0.306, -0.150, 0.940);(27.547, 4.155, -27.281);0.79;(30.676, 4.117, -27.328);(-0.324, -0.150, 0.934);(0.547, 0.475, 0.000);3.37;0.65;(-31.500, 4.882, -26.382);(0.056, -0.153, 0.987);(0.523, 0.429, 0.000);3.56
1;1;conv2_3x3_6-14-36;NoAnomalies;0;6.228;(-0.151, 1.249, 0.064);(349.826, 358.796, 3.021);(-0.307, -0.145, 0.941);(27.149, 4.163, -27.283);0.83;(30.666, 4.119, -27.334);(-0.327, -0.143, 0.934);(0.548, 0.474, 0.000);3.48;0.67;(-31.528, 4.892, -26.441);(0.055, -0.155, 0.986);(0.525, 0.429, 0.000);3.57
1;1;conv2_3x3_6-14-36;NoAnomalies;0;6.253;(-0.152, 1.248, 0.064);(350.008, 358.599, 3.070);(-0.184, -0.150, 0.971);(6.822, 4.415, -26.992);0.91;(30.654, 4.117, -27.328);(-0.327, -0.143, 0.934);(0.548, 0.474, 0.000);3.46;0.73;(-31.560, 4.894, -26.450);(0.055, -0.153, 0.987);(0.526, 0.429, 0.000);3.65
1;1;conv2_3x3_6-14-36;NoAnomalies;0;6.279;(-0.152, 1.248, 0.065);(350.188, 358.425, 3.082);(-0.150, -0.154, 0.977);(0.661, 4.486, -26.841);0.93;(30.630, 4.116, -27.254);(-0.336, -0.149, 0.930);(0.550, 0.474, 0.000);3.49;0.75;(-31.574, 4.884, -26.396);(0.055, -0.152, 0.987);(0.526, 0.428, 0.000);3.68
1;1;conv2_3x3_6-14-36;NoAnomalies;0;6.304;(-0.152, 1.248, 0.066);(350.501, 358.182, 3.126);(-0.150, -0.148, 0.977);(-0.203, 4.488, -26.870);0.95;(30.627, 4.106, -27.341);(-0.341, -0.142, 0.929);(0.551, 0.474, 0.000);3.46;0.83;(-31.585, 4.876, -26.390);(0.050, -0.149, 0.988);(0.527, 0.428, 0.000);3.69
1;1;conv2_3x3_6-14-36;NoAnomalies;0;6.328;(-0.153, 1.247, 0.067);(350.761, 358.059, 3.103);(0.000, -0.146, 0.989);(-23.832, 4.772, -26.447);0.96;(30.594, 4.038, -26.956);(-0.341, -0.135, 0.931);(0.552, 0.472, 0.000);3.50;0.84;(-31.599, 4.877, -26.374);(0.049, -0.146, 0.988);(0.528, 0.428, 0.000);3.69
1;1;conv2_3x3_6-14-36;NoAnomalies;0;6.352;(-0.153, 1.247, 0.068);(351.091, 357.944, 3.050);(-0.037, -0.131, 0.991);(-9.637, 4.774, -27.418);0.97;(30.931, 4.228, -27.706);(-0.274, -0.128, 0.953);(0.530, 0.470, 0.000);3.50;0.86;(-31.188, 5.063, -27.265);(0.089, -0.130, 0.987);(0.507, 0.426, 0.000);3.69
1;1;conv2_3x3_6-14-36;NoAnomalies;0;6.378;(-0.152, 1.246, 0.069);(351.437, 357.809, 2.908);(-0.089, -0.098, 0.991);(21.208, 4.381, -27.319);0.94;(31.646, 4.254, -27.466);(-0.150, -0.094, 0.984);(0.486, 0.462, 0.000);3.47;0.79;(-30.366, 5.011, -26.594);(0.217, -0.109, 0.970);(0.458, 0.419, 0.000);3.68
1;1;conv2_3x3_6-14-36;NoAnomalies;0;6.403;(-0.152, 1.245, 0.070);(352.053, 357.517, 2.616);(-0.101, -0.099, 0.990);(24.652, 4.325, -27.325);0.95;(31.833, 4.232, -27.423);(-0.142, -0.098, 0.985);(0.479, 0.463, 0.000);3.56;0.80;(-30.180, 5.029, -26.581);(0.216, -0.102, 0.971);(0.452, 0.417, 0.000);3.70
1;1;conv2_3x3_6-14-36;NoAnomalies;0;6.428;(-0.152, 1.245, 0.070);(352.201, 357.392, 2.545);(-0.120, -0.102, 0.988);(29.722, 4.306, -27.377);0.97;(31.795, 4.281, -27.404);(-0.131, -0.102, 0.986);(0.478, 0.462, 0.000);3.52;0.86;(-30.203, 5.044, -26.597);(0.225, -0.101, 0.969);(0.452, 0.416, 0.000);3.81
1;1;conv2_3x3_6-14-36;NoAnomalies;0;6.452;(-0.152, 1.245, 0.071);(352.437, 357.129, 2.425);(0.042, -0.099, 0.994);(1.542, 4.666, -27.032);0.98;(31.809, 4.280, -27.417);(-0.129, -0.101, 0.987);(0.477, 0.462, 0.000);3.47;0.92;(-30.207, 5.071, -26.629);(0.221, -0.095, 0.971);(0.453, 0.414, 0.000);3.81
1;1;conv2_3x3_6-14-36;NoAnomalies;0;6.476;(-0.152, 1.244, 0.071);(352.648, 356.872, 2.333);(0.033, -0.100, 0.994);(2.810, 4.658, -27.058);0.97;(31.810, 4.281, -27.419);(-0.133, -0.101, 0.986);(0.478, 0.462, 0.000);3.49;0.95;(-30.214, 5.086, -26.647);(0.221, -0.097, 0.970);(0.453, 0.414, 0.000);3.79
1;1;conv2_3x3_6-14-36;NoAnomalies;0;6.501;(-0.151, 1.244, 0.072);(352.800, 356.637, 2.240);(-0.042, -0.097, 0.994);(15.255, 4.518, -27.259);0.97;(31.810, 4.284, -27.422);(-0.136, -0.097, 0.986);(0.478, 0.461, 0.000);3.47;0.99;(-30.290, 5.162, -26.810);(0.216, -0.093, 0.972);(0.456, 0.413, 0.000);3.81
1;1;conv2_3x3_6-14-36;NoAnomalies;0;6.525;(-0.151, 1.244, 0.072);(353.034, 356.342, 2.108);(-0.095, -0.094, 0.991);(23.717, 4.404, -27.354);1.00;(31.810, 4.288, -27.426);(-0.141, -0.094, 0.986);(0.479, 0.460, 0.000);3.46;1.00;(-30.312, 5.182, -26.873);(0.215, -0.092, 0.972);(0.457, 0.412, 0.000);3.80
1;1;conv2_3x3_6-14-36;NoAnomalies;0;6.550;(-0.151, 1.244, 0.072);(353.169, 356.146, 2.031);(-0.057, -0.092, 0.994);(16.329, 4.512, -27.314);1.00;(31.816, 4.287, -27.449);(-0.146, -0.091, 0.985);(0.480, 0.460, 0.000);3.46;1.00;(-30.322, 5.188, -26.907);(0.212, -0.091, 0.973);(0.458, 0.412, 0.000);3.72
1;1;conv2_3x3_6-14-36;NoAnomalies;0;6.576;(-0.151, 1.243, 0.072);(353.277, 355.953, 1.968);(0.011, -0.090, 0.996);(4.145, 4.696, -27.247);1.00;(31.820, 4.286, -27.475);(-0.150, -0.086, 0.985);(0.480, 0.459, 0.000);3.46;1.00;(-30.334, 5.206, -26.964);(0.211, -0.090, 0.973);(0.458, 0.412, 0.000);3.68
1;1;conv2_3x3_6-14-36;NoAnomalies;0;6.611;(-0.150, 1.243, 0.073);(353.412, 355.761, 1.896);(-0.007, -0.087, 0.996);(5.821, 4.680, -27.294);1.00;(31.820, 4.288, -27.494);(-0.162, -0.085, 0.983);(0.482, 0.459, 0.000);3.41;1.00;(-30.347, 5.226, -27.016);(0.209, -0.087, 0.974);(0.459, 0.411, 0.000);3.64
1;1;conv2_3x3_6-14-36;NoAnomalies;0;6.636;(-0.150, 1.243, 0.073);(353.516, 355.628, 1.801);(0.000, -0.087, 0.996);(4.173, 4.710, -27.296);1.00;(31.812, 4.291, -27.513);(-0.164, -0.084, 0.983);(0.483, 0.459, 0.000);3.39;1.00;(-30.357, 5.234, -27.026);(0.204, -0.087, 0.975);(0.460, 0.411, 0.000);3.63
1;1;conv2_3x3_6-14-36;NoAnomalies;0;6.659;(-0.150, 1.243, 0.072);(353.583, 355.583, 1.746);(-0.020, -0.080, 0.997);(4.756, 4.713, -27.386);1.00;(31.659, 4.300, -27.544);(-0.176, -0.080, 0.981);(0.490, 0.458, 0.000);3.30;1.00;(-30.514, 5.254, -27.179);(0.186, -0.078, 0.980);(0.468, 0.410, 0.000);3.55
1;1;conv2_3x3_6-14-36;NoAnomalies;0;6.684;(-0.149, 1.243, 0.072);(353.618, 355.540, 1.730);(-0.290, -0.054, 0.956);(26.807, 4.412, -27.218);1.00;(30.827, 4.360, -27.292);(-0.313, -0.053, 0.948);(0.540, 0.450, 0.000);3.31;1.00;(-31.286, 5.173, -26.152);(0.065, -0.059, 0.996);(0.515, 0.401, 0.000);3.53
1;1;conv2_3x3_6-14-36;NoAnomalies;0;6.709;(-0.149, 1.243, 0.072);(353.625, 355.544, 1.696);(-0.131, -0.057, 0.990);(-13.265, 4.975, -26.575);1.00;(30.210, 4.343, -27.157);(-0.397, -0.049, 0.917);(0.575, 0.449, 0.000);3.34;1.00;(-31.869, 5.245, -26.326);(-0.014, -0.059, 0.998);(0.548, 0.400, 0.000);3.66
1;1;conv2_3x3_6-14-36;NoAnomalies;0;6.733;(-0.149, 1.243, 0.072);(353.617, 355.631, 1.638);(-0.030, -0.064, 0.997);(-29.002, 5.182, -26.367);1.00;(30.303, 4.120, -26.392);(-0.405, -0.042, 0.913);(0.573, 0.449, 0.000);3.26;1.00;(-31.883, 5.234, -26.366);(-0.012, -0.065, 0.998);(0.548, 0.402, 0.000);3.56
1;1;conv2_3x3_6-14-36;NoAnomalies;0;6.757;(-0.148, 1.243, 0.072);(353.577, 355.721, 1.579);(-0.021, -0.064, 0.998);(-30.584, 5.181, -26.258);1.00;(30.343, 4.093, -26.308);(-0.406, -0.042, 0.913);(0.572, 0.449, 0.000);3.43;1.00;(-31.874, 5.204, -26.257);(-0.012, -0.065, 0.998);(0.547, 0.402, 0.000);3.60
1;1;conv2_3x3_6-14-36;NoAnomalies;0;6.781;(-0.148, 1.243, 0.071);(353.497, 355.868, 1.524);(-0.015, -0.063, 0.998);(-31.817, 5.174, -26.171);1.00;(30.342, 4.200, -26.852);(-0.399, -0.036, 0.916);(0.571, 0.449, 0.000);3.32;1.00;(-31.870, 5.175, -26.171);(-0.014, -0.063, 0.998);(0.548, 0.402, 0.000);3.60
1;1;conv2_3x3_6-14-36;NoAnomalies;0;6.806;(-0.147, 1.243, 0.071);(353.397, 355.964, 1.546);(-0.016, -0.065, 0.998);(-31.558, 5.182, -26.209);1.00;(30.364, 4.197, -26.880);(-0.398, -0.047, 0.916);(0.570, 0.451, 0.000);3.40;1.00;(-31.869, 5.187, -26.205);(-0.014, -0.065, 0.998);(0.547, 0.402, 0.000);3.62
1;1;conv2_3x3_6-14-36;NoAnomalies;0;6.830;(-0.147, 1.243, 0.071);(353.309, 356.057, 1.542);(-0.014, -0.064, 0.998);(-31.556, 5.185, -26.245);1.00;(30.378, 4.196, -26.900);(-0.397, -0.046, 0.916);(0.569, 0.451, 0.000);3.39;1.00;(-31.869, 5.190, -26.242);(-0.012, -0.064, 0.998);(0.547, 0.402, 0.000);3.62
1;1;conv2_3x3_6-14-36;NoAnomalies;0;6.854;(-0.147, 1.243, 0.071);(353.235, 356.133, 1.526);(-0.235, -0.055, 0.970);(3.717, 4.619, -26.627);1.00;(30.390, 4.194, -26.880);(-0.396, -0.048, 0.917);(0.569, 0.451, 0.000);3.32;1.00;(-31.868, 5.187, -26.290);(-0.011, -0.062, 0.998);(0.547, 0.402, 0.000);3.63
1;1;conv2_3x3_6-14-36;NoAnomalies;0;6.879;(-0.146, 1.243, 0.071);(353.146, 356.188, 1.501);(-0.232, -0.056, 0.971);(3.498, 4.611, -26.616);1.00;(30.399, 4.182, -26.863);(-0.394, -0.048, 0.918);(0.568, 0.451, 0.000);3.36;1.00;(-31.856, 5.175, -26.292);(-0.008, -0.064, 0.998);(0.546, 0.403, 0.000);3.62
1;1;conv2_3x3_6-14-36;NoAnomalies;0;6.902;(-0.146, 1.244, 0.070);(353.036, 356.237, 1.495);(-0.210, -0.058, 0.976);(0.118, 4.660, -26.580);1.00;(30.405, 4.173, -26.847);(-0.392, -0.049, 0.919);(0.568, 0.452, 0.000);3.36;1.00;(-31.841, 5.175, -26.297);(-0.009, -0.066, 0.998);(0.546, 0.403, 0.000);3.62
1;1;conv2_3x3_6-14-36;NoAnomalies;0;6.927;(-0.146, 1.244, 0.070);(353.008, 356.250, 1.499);(-0.193, -0.056, 0.980);(-2.589, 4.669, -26.553);1.00;(30.426, 4.150, -26.842);(-0.392, -0.050, 0.918);(0.567, 0.453, 0.000);3.35;1.00;(-31.823, 5.128, -26.297);(-0.009, -0.060, 0.998);(0.545, 0.404, 0.000);3.63
1;1;conv2_3x3_6-14-36;NoAnomalies;0;6.950;(-0.146, 1.244, 0.070);(353.018, 356.251, 1.493);(-0.202, -0.054, 0.978);(-1.178, 4.630, -26.572);1.00;(30.448, 4.127, -26.842);(-0.395, -0.048, 0.918);(0.567, 0.453, 0.000);3.35;1.00;(-31.818, 5.117, -26.311);(-0.007, -0.058, 0.998);(0.545, 0.404, 0.000);3.63
1;1;conv2_3x3_6-14-36;NoAnomalies;0;6.977;(-0.146, 1.244, 0.070);(353.057, 356.264, 1.494);(-0.204, -0.057, 0.977);(-0.078, 4.607, -26.586);1.00;(30.460, 4.121, -26.850);(-0.387, -0.050, 0.921);(0.565, 0.454, 0.000);3.35;1.00;(-31.816, 5.112, -26.311);(-0.005, -0.062, 0.998);(0.544, 0.405, 0.000);3.63
1;1;conv2_3x3_6-14-36;NoAnomalies;0;7.000;(-0.145, 1.243, 0.070);(353.131, 356.306, 1.508);(-0.198, -0.060, 0.978);(-0.978, 4.618, -26.601);1.00;(30.472, 4.115, -26.869);(-0.388, -0.051, 0.920);(0.565, 0.454, 0.000);3.34;1.00;(-31.816, 5.111, -26.339);(-0.005, -0.067, 0.998);(0.544, 0.406, 0.000);3.65
1;1;conv2_3x3_6-14-36;NoAnomalies;0;7.036;(-0.145, 1.243, 0.070);(353.343, 356.410, 1.548);(-0.245, -0.057, 0.968);(6.642, 4.492, -26.713);1.00;(30.475, 4.109, -26.892);(-0.387, -0.050, 0.921);(0.564, 0.454, 0.000);3.34;1.00;(-31.819, 5.112, -26.424);(-0.003, -0.066, 0.998);(0.544, 0.406, 0.000);3.67
1;1;conv2_3x3_6-14-36;NoAnomalies;0;7.060;(-0.145, 1.243, 0.070);(353.480, 356.478, 1.562);(-0.240, -0.056, 0.969);(6.145, 4.501, -26.737);1.00;(30.477, 4.109, -26.909);(-0.386, -0.049, 0.921);(0.564, 0.454, 0.000);3.36;1.00;(-31.820, 5.113, -26.468);(-0.002, -0.065, 0.998);(0.544, 0.406, 0.000);3.67
1;1;conv2_3x3_6-14-36;NoAnomalies;0;7.083;(-0.145, 1.243, 0.070);(353.566, 356.569, 1.564);(-0.224, -0.057, 0.973);(3.468, 4.545, -26.725);1.00;(30.484, 4.109, -26.913);(-0.386, -0.049, 0.921);(0.564, 0.454, 0.000);3.36;1.00;(-31.820, 5.114, -26.480);(-0.002, -0.064, 0.998);(0.544, 0.406, 0.000);3.67
1;1;conv2_3x3_6-14-36;NoAnomalies;0;7.110;(-0.144, 1.243, 0.070);(353.614, 356.696, 1.578);(-0.199, -0.057, 0.978);(-0.311, 4.614, -26.726);1.00;(30.494, 4.125, -26.966);(-0.385, -0.049, 0.921);(0.563, 0.454, 0.000);3.37;1.00;(-31.820, 5.114, -26.480);(-0.001, -0.064, 0.998);(0.544, 0.406, 0.000);3.69
1;1;conv2_3x3_6-14-36;NoAnomalies;0;7.134;(-0.144, 1.242, 0.071);(353.678, 356.820, 1.566);(-0.044, -0.110, 0.993);(-31.455, 4.885, -26.587);1.00;(30.091, 4.202, -27.913);(-0.414, -0.106, 0.904);(0.582, 0.470, 0.000);3.36;1.00;(-31.990, 4.891, -26.575);(-0.041, -0.110, 0.993);(0.556, 0.423, 0.000);3.71
1;1;conv2_3x3_6-14-36;NoAnomalies;0;7.159;(-0.143, 1.242, 0.071);(353.775, 356.962, 1.549);(-0.042, -0.127, 0.991);(-32.014, 4.771, -26.579);1.00;(30.111, 3.959, -27.432);(-0.431, -0.121, 0.894);(0.584, 0.476, 0.000);3.37;1.00;(-32.020, 4.771, -26.579);(-0.042, -0.127, 0.991);(0.557, 0.430, 0.000);3.70
1;1;conv2_3x3_6-14-36;NoAnomalies;0;7.183;(-0.143, 1.242, 0.071);(353.830, 357.044, 1.520);(-0.041, -0.132, 0.990);(-31.894, 4.781, -26.561);1.00;(30.153, 3.927, -27.312);(-0.426, -0.125, 0.896);(0.582, 0.477, 0.000);3.44;1.00;(-32.009, 4.783, -26.560);(-0.040, -0.132, 0.990);(0.557, 0.430, 0.000);3.66
1;1;conv2_3x3_6-14-36;NoAnomalies;0;7.207;(-0.143, 1.242, 0.071);(353.872, 357.108, 1.529);(-0.045, -0.129, 0.991);(-31.305, 4.772, -26.560);1.00;(30.194, 3.893, -27.214);(-0.432, -0.126, 0.893);(0.581, 0.478, 0.000);3.50;1.00;(-32.008, 4.782, -26.553);(-0.041, -0.129, 0.991);(0.557, 0.429, 0.000);3.60
1;1;conv2_3x3_6-14-36;NoAnomalies;0;7.231;(-0.143, 1.242, 0.071);(353.944, 357.160, 1.555);(-0.166, -0.130, 0.977);(-12.478, 4.505, -26.772);1.00;(30.208, 3.900, -27.252);(-0.432, -0.124, 0.893);(0.581, 0.477, 0.000);3.47;1.00;(-32.008, 4.783, -26.552);(-0.041, -0.130, 0.991);(0.557, 0.429, 0.000);3.61
1;1;conv2_3x3_6-14-36;NoAnomalies;0;7.254;(-0.143, 1.242, 0.071);(354.020, 357.203, 1.566);(-0.208, -0.130, 0.969);(-6.114, 4.417, -26.845);1.00;(30.216, 3.903, -27.255);(-0.432, -0.124, 0.893);(0.581, 0.477, 0.000);3.46;1.00;(-32.009, 4.784, -26.553);(-0.041, -0.130, 0.991);(0.557, 0.429, 0.000);3.64
1;1;conv2_3x3_6-14-36;NoAnomalies;0;7.279;(-0.143, 1.242, 0.072);(354.105, 357.251, 1.583);(-0.223, -0.130, 0.966);(-3.688, 4.390, -26.887);1.00;(30.223, 3.916, -27.288);(-0.431, -0.125, 0.893);(0.580, 0.477, 0.000);3.43;1.00;(-32.010, 4.786, -26.552);(-0.040, -0.129, 0.991);(0.557, 0.429, 0.000);3.65
1;1;conv2_3x3_6-14-36;NoAnomalies;0;7.304;(-0.142, 1.242, 0.072);(354.216, 357.349, 1.578);(-0.202, -0.129, 0.971);(-6.185, 4.436, -26.876);1.00;(30.225, 3.939, -27.335);(-0.421, -0.125, 0.898);(0.579, 0.477, 0.000);3.42;1.00;(-32.010, 4.788, -26.551);(-0.040, -0.128, 0.991);(0.557, 0.429, 0.000);3.65
1;1;conv2_3x3_6-14-36;NoAnomalies;0;7.328;(-0.142, 1.242, 0.072);(354.267, 357.435, 1.557);(-0.184, -0.127, 0.975);(-8.793, 4.497, -26.852);1.00;(30.248, 4.005, -27.366);(-0.417, -0.117, 0.901);(0.577, 0.473, 0.000);3.38;1.00;(-32.012, 4.790, -26.546);(-0.039, -0.129, 0.991);(0.557, 0.429, 0.000);3.67
1;1;conv2_3x3_6-14-36;NoAnomalies;0;7.352;(-0.142, 1.242, 0.072);(354.325, 357.503, 1.522);(-0.198, -0.126, 0.972);(-6.379, 4.470, -26.884);1.00;(30.254, 4.011, -27.370);(-0.417, -0.118, 0.901);(0.577, 0.473, 0.000);3.37;1.00;(-32.012, 4.791, -26.544);(-0.039, -0.127, 0.991);(0.556, 0.429, 0.000);3.67
1;1;conv2_3x3_6-14-36;NoAnomalies;0;7.375;(-0.142, 1.242, 0.072);(354.397, 357.557, 1.492);(-0.223, -0.124, 0.967);(-2.147, 4.419, -26.938);1.00;(30.263, 4.015, -27.372);(-0.415, -0.116, 0.902);(0.576, 0.473, 0.000);3.40;1.00;(-32.012, 4.791, -26.538);(-0.037, -0.126, 0.991);(0.556, 0.428, 0.000);3.68
1;1;conv2_3x3_6-14-36;NoAnomalies;0;7.401;(-0.141, 1.242, 0.072);(354.490, 357.616, 1.492);(-0.318, -0.119, 0.941);(13.328, 4.235, -27.110);1.00;(30.268, 4.019, -27.372);(-0.414, -0.116, 0.903);(0.576, 0.473, 0.000);3.41;1.00;(-32.005, 4.814, -26.408);(-0.043, -0.120, 0.992);(0.557, 0.425, 0.000);3.74
1;1;conv2_3x3_6-14-36;NoAnomalies;0;7.426;(-0.141, 1.241, 0.072);(354.582, 357.714, 1.480);(-0.238, -0.121, 0.964);(0.719, 4.528, -27.226);1.00;(30.316, 4.155, -27.719);(-0.408, -0.113, 0.906);(0.573, 0.471, 0.000);3.57;0.92;(-32.025, 4.941, -26.680);(-0.041, -0.126, 0.991);(0.557, 0.424, 0.000);3.64
1;1;conv2_3x3_6-14-36;NoAnomalies;0;7.451;(-0.141, 1.241, 0.072);(354.646, 357.773, 1.465);(-1.000, -1.000, -1.000);(-1.000, -1.000, -1.000);0.31;(30.464, 3.290, -27.678);(0.000, 0.000, 0.000);(0.569, 0.512, 0.000);-1.00;0.01;(-31.432, 4.174, -26.637);(0.000, 0.000, 0.000);(0.519, 0.471, 0.000);-1.00
1;1;conv2_3x3_6-14-36;NoAnomalies;0;7.485;(-0.141, 1.241, 0.072);(354.731, 357.829, 1.444);(-1.000, -1.000, -1.000);(-1.000, -1.000, -1.000);0.09;(30.464, 3.290, -27.678);(0.000, 0.000, 0.000);(-1.000, -1.000, 0.000);-1.00;0.00;(-31.432, 4.174, -26.637);(0.000, 0.000, 0.000);(0.504, 0.462, 0.000);-1.00
1;1;conv2_3x3_6-14-36;NoAnomalies;0;7.509;(-0.141, 1.241, 0.072);(354.788, 357.875, 1.445);(-1.000, -1.000, -1.000);(-1.000, -1.000, -1.000);0.14;(30.578, 4.733, -27.151);(0.000, 0.000, 0.000);(0.571, 0.516, 0.000);-1.00;0.00;(-31.507, 5.266, -26.961);(0.000, 0.000, 0.000);(0.547, 0.445, 0.000);-1.00
1;1;conv2_3x3_6-14-36;NoAnomalies;0;7.533;(-0.140, 1.241, 0.072);(354.810, 357.911, 1.431);(-1.000, -1.000, -1.000);(-1.000, -1.000, -1.000);0.55;(30.515, 5.099, -29.023);(0.000, 0.000, 0.000);(0.569, 0.451, 0.000);-1.00;0.30;(-31.862, 5.613, -27.062);(0.000, 0.000, 0.000);(0.550, 0.405, 0.000);-1.00
1;1;conv2_3x3_6-14-36;NoAnomalies;0;7.556;(-0.140, 1.241, 0.072);(354.865, 358.003, 1.400);(-1.000, -1.000, -1.000);(-1.000, -1.000, -1.000);0.67;(30.512, 4.834, -28.262);(0.000, 0.000, 0.000);(0.562, 0.442, 0.000);-1.00;0.46;(-31.830, 5.476, -26.786);(0.000, 0.000, 0.000);(0.545, 0.402, 0.000);-1.00
1;1;conv2_3x3_6-14-36;NoAnomalies;0;7.580;(-0.140, 1.241, 0.072);(354.850, 358.035, 1.385);(-0.010, -0.077, 0.997);(-31.818, 5.392, -26.700);0.76;(30.485, 4.663, -27.885);(-0.390, -0.074, 0.918);(0.565, 0.448, 0.000);3.41;0.58;(-31.821, 5.392, -26.700);(-0.010, -0.077, 0.997);(0.545, 0.401, 0.000);3.70
1;1;conv2_3x3_6-14-36;NoAnomalies;0;7.605;(-0.140, 1.241, 0.072);(354.861, 358.092, 1.378);(-0.010, -0.072, 0.997);(-31.781, 5.372, -26.846);0.90;(30.514, 4.570, -27.629);(-0.383, -0.065, 0.921);(0.563, 0.448, 0.000);3.52;0.75;(-31.792, 5.372, -26.845);(-0.009, -0.072, 0.997);(0.544, 0.402, 0.000);3.67
1;1;conv2_3x3_6-14-36;NoAnomalies;0;7.630;(-0.140, 1.241, 0.072);(354.890, 358.135, 1.382);(-0.018, -0.067, 0.998);(-30.433, 5.331, -26.799);0.94;(30.530, 4.479, -27.467);(-0.383, -0.054, 0.922);(0.562, 0.448, 0.000);3.51;0.82;(-31.793, 5.350, -26.784);(-0.010, -0.067, 0.998);(0.544, 0.402, 0.000);3.67
1;1;conv2_3x3_6-14-36;NoAnomalies;0;7.654;(-0.140, 1.241, 0.072);(354.928, 358.173, 1.381);(-0.026, -0.064, 0.998);(-29.077, 5.295, -26.777);0.98;(30.533, 4.457, -27.419);(-0.388, -0.056, 0.920);(0.563, 0.448, 0.000);3.53;0.93;(-31.793, 5.333, -26.748);(-0.009, -0.064, 0.998);(0.544, 0.401, 0.000);3.68
1;1;conv2_3x3_6-14-36;NoAnomalies;0;7.678;(-0.140, 1.241, 0.072);(354.947, 358.227, 1.374);(-0.014, -0.068, 0.998);(-30.742, 5.285, -26.578);0.99;(30.568, 4.308, -26.832);(-0.385, -0.053, 0.921);(0.561, 0.448, 0.000);3.49;0.96;(-31.799, 5.302, -26.574);(-0.008, -0.068, 0.998);(0.544, 0.402, 0.000);3.70
1;1;conv2_3x3_6-14-36;NoAnomalies;0;7.704;(-0.140, 1.241, 0.072);(354.946, 358.280, 1.413);(-0.002, -0.071, 0.997);(-31.634, 5.299, -26.574);1.00;(30.560, 4.322, -27.084);(-0.386, -0.050, 0.921);(0.561, 0.449, 0.000);3.42;1.00;(-31.819, 5.301, -26.572);(-0.001, -0.071, 0.997);(0.544, 0.402, 0.000);3.69
1;1;conv2_3x3_6-14-36;NoAnomalies;0;7.729;(-0.140, 1.241, 0.072);(354.942, 358.287, 1.468);(-0.001, -0.071, 0.997);(-31.544, 5.292, -26.569);1.00;(30.574, 4.232, -26.731);(-0.392, -0.051, 0.918);(0.562, 0.449, 0.000);3.38;1.00;(-31.824, 5.297, -26.569);(0.001, -0.072, 0.997);(0.544, 0.402, 0.000);3.69
1;1;conv2_3x3_6-14-36;NoAnomalies;0;7.753;(-0.140, 1.241, 0.072);(354.959, 358.294, 1.516);(-0.028, -0.071, 0.997);(-27.106, 5.211, -26.560);1.00;(30.575, 4.198, -26.628);(-0.394, -0.048, 0.918);(0.562, 0.449, 0.000);3.46;1.00;(-31.825, 5.294, -26.554);(0.002, -0.073, 0.997);(0.543, 0.402, 0.000);3.68
1;1;conv2_3x3_6-14-36;NoAnomalies;0;7.777;(-0.140, 1.241, 0.072);(355.000, 358.305, 1.549);(-0.017, -0.073, 0.997);(-28.672, 5.236, -26.556);1.00;(30.574, 4.210, -26.667);(-0.391, -0.049, 0.919);(0.562, 0.449, 0.000);3.46;1.00;(-31.825, 5.290, -26.550);(0.003, -0.074, 0.997);(0.543, 0.403, 0.000);3.67
1;1;conv2_3x3_6-14-36;NoAnomalies;0;7.801;(-0.140, 1.241, 0.072);(355.135, 358.340, 1.554);(-0.223, -0.056, 0.973);(3.148, 4.651, -26.574);1.00;(30.569, 4.232, -26.731);(-0.390, -0.051, 0.920);(0.562, 0.449, 0.000);3.46;1.00;(-31.818, 5.184, -26.374);(0.000, -0.061, 0.998);(0.543, 0.403, 0.000);3.63
1;1;conv2_3x3_6-14-36;NoAnomalies;0;7.836;(-0.140, 1.240, 0.073);(355.216, 358.354, 1.534);(-0.091, -0.063, 0.994);(-17.237, 4.966, -26.473);1.00;(30.566, 4.261, -26.934);(-0.388, -0.045, 0.920);(0.561, 0.449, 0.000);3.45;1.00;(-31.818, 5.181, -26.332);(0.001, -0.067, 0.998);(0.543, 0.403, 0.000);3.64
1;1;conv2_3x3_6-14-36;NoAnomalies;0;7.861;(-0.140, 1.240, 0.073);(355.256, 358.354, 1.546);(-0.095, -0.062, 0.994);(-16.524, 4.959, -26.510);1.00;(30.565, 4.259, -26.930);(-0.388, -0.045, 0.921);(0.561, 0.449, 0.000);3.44;1.00;(-31.821, 5.187, -26.374);(0.001, -0.066, 0.998);(0.543, 0.403, 0.000);3.63
1;1;conv2_3x3_6-14-36;NoAnomalies;0;7.887;(-0.140, 1.240, 0.073);(355.269, 358.358, 1.555);(-0.235, -0.055, 0.970);(5.561, 4.647, -26.739);1.00;(30.563, 4.259, -26.930);(-0.387, -0.044, 0.921);(0.561, 0.449, 0.000);3.43;1.00;(-31.828, 5.226, -26.453);(0.003, -0.068, 0.998);(0.543, 0.403, 0.000);3.64
1;1;conv2_3x3_6-14-36;NoAnomalies;0;7.912;(-0.140, 1.240, 0.073);(355.289, 358.369, 1.571);(-0.225, -0.057, 0.973);(3.689, 4.678, -26.682);1.00;(30.561, 4.238, -26.772);(-0.390, -0.046, 0.920);(0.562, 0.449, 0.000);3.45;1.00;(-31.835, 5.261, -26.562);(0.004, -0.069, 0.998);(0.543, 0.403, 0.000);3.63
1;1;conv2_3x3_6-14-36;NoAnomalies;0;7.935;(-0.140, 1.240, 0.073);(355.307, 358.391, 1.584);(-0.211, -0.058, 0.976);(1.624, 4.721, -26.694);1.00;(30.560, 4.238, -26.760);(-0.390, -0.046, 0.920);(0.562, 0.448, 0.000);3.44;1.00;(-31.840, 5.281, -26.618);(0.005, -0.069, 0.998);(0.543, 0.403, 0.000);3.63
1;1;conv2_3x3_6-14-36;NoAnomalies;0;7.960;(-0.140, 1.240, 0.073);(355.314, 358.422, 1.611);(-0.225, -0.057, 0.973);(3.826, 4.687, -26.706);1.00;(30.559, 4.238, -26.760);(-0.390, -0.046, 0.920);(0.562, 0.448, 0.000);3.44;1.00;(-31.844, 5.287, -26.634);(0.006, -0.068, 0.998);(0.543, 0.403, 0.000);3.59
1;1;conv2_3x3_6-14-36;NoAnomalies;0;7.984;(-0.140, 1.240, 0.073);(355.305, 358.448, 1.630);(-0.229, -0.057, 0.972);(4.406, 4.682, -26.707);1.00;(30.558, 4.245, -26.760);(-0.390, -0.048, 0.920);(0.562, 0.448, 0.000);3.42;1.00;(-31.844, 5.287, -26.634);(0.006, -0.068, 0.998);(0.543, 0.402, 0.000);3.58
1;1;conv2_3x3_6-14-36;NoAnomalies;0;8.009;(-0.140, 1.240, 0.073);(355.285, 358.487, 1.666);(-0.252, -0.061, 0.966);(7.574, 4.610, -26.621);1.00;(30.539, 4.250, -26.748);(-0.392, -0.051, 0.918);(0.563, 0.449, 0.000);3.41;1.00;(-31.859, 5.227, -26.403);(0.000, -0.074, 0.997);(0.545, 0.404, 0.000);3.41
1;1;conv2_3x3_6-14-36;NoAnomalies;0;8.032;(-0.140, 1.240, 0.073);(355.281, 358.522, 1.675);(-0.421, -0.050, 0.906);(28.219, 4.176, -26.451);1.00;(30.227, 4.145, -26.465);(-0.432, -0.049, 0.900);(0.580, 0.450, 0.000);3.21;1.00;(-32.070, 5.109, -26.009);(-0.049, -0.068, 0.996);(0.560, 0.403, 0.000);3.46
1;1;conv2_3x3_6-14-36;NoAnomalies;0;8.056;(-0.140, 1.240, 0.073);(355.284, 358.568, 1.663);(-0.426, -0.053, 0.903);(29.905, 4.204, -26.742);1.00;(30.244, 4.199, -26.747);(-0.428, -0.052, 0.902);(0.579, 0.451, 0.000);3.20;1.00;(-32.063, 5.061, -25.899);(-0.043, -0.069, 0.997);(0.559, 0.404, 0.000);3.54
1;1;conv2_3x3_6-14-36;NoAnomalies;0;8.079;(-0.140, 1.240, 0.073);(355.300, 358.653, 1.652);(-0.328, -0.054, 0.943);(13.398, 4.434, -26.514);1.00;(30.245, 4.203, -26.753);(-0.427, -0.047, 0.903);(0.579, 0.450, 0.000);3.21;1.00;(-32.062, 5.056, -25.869);(-0.041, -0.069, 0.997);(0.558, 0.404, 0.000);3.53
1;1;conv2_3x3_6-14-36;NoAnomalies;0;8.106;(-0.140, 1.240, 0.073);(355.301, 358.703, 1.659);(-0.202, -0.061, 0.978);(-6.569, 4.711, -26.248);1.00;(30.249, 4.207, -26.760);(-0.426, -0.048, 0.903);(0.579, 0.450, 0.000);3.23;1.00;(-32.067, 5.060, -25.893);(-0.039, -0.069, 0.997);(0.558, 0.404, 0.000);3.53
1;1;conv2_3x3_6-14-36;NoAnomalies;0;8.130;(-0.140, 1.240, 0.073);(355.319, 358.734, 1.700);(-0.247, -0.059, 0.967);(0.571, 4.612, -26.348);1.00;(30.253, 4.199, -26.744);(-0.425, -0.048, 0.904);(0.578, 0.450, 0.000);3.25;1.00;(-32.069, 5.066, -25.914);(-0.040, -0.068, 0.997);(0.558, 0.404, 0.000);3.52
1;1;conv2_3x3_6-14-36;NoAnomalies;0;8.154;(-0.140, 1.240, 0.073);(355.343, 358.771, 1.727);(-0.248, -0.059, 0.967);(0.889, 4.609, -26.361);1.00;(30.255, 4.196, -26.737);(-0.423, -0.049, 0.905);(0.578, 0.450, 0.000);3.23;1.00;(-32.070, 5.072, -25.938);(-0.040, -0.068, 0.997);(0.558, 0.404, 0.000);3.50
1;1;conv2_3x3_6-14-36;NoAnomalies;0;8.177;(-0.139, 1.240, 0.073);(355.369, 358.802, 1.744);(-0.235, -0.061, 0.970);(-1.137, 4.625, -26.256);1.00;(30.273, 4.111, -26.363);(-0.425, -0.049, 0.904);(0.578, 0.450, 0.000);3.24;1.00;(-32.075, 5.132, -26.151);(-0.038, -0.070, 0.997);(0.558, 0.404, 0.000);3.50
1;1;conv2_3x3_6-14-36;NoAnomalies;0;8.202;(-0.139, 1.240, 0.073);(355.392, 358.876, 1.733);(-0.074, -0.066, 0.995);(-26.357, 5.041, -26.186);1.00;(30.286, 4.107, -26.341);(-0.426, -0.050, 0.903);(0.577, 0.450, 0.000);3.25;1.00;(-32.078, 5.135, -26.170);(-0.038, -0.067, 0.997);(0.558, 0.404, 0.000);3.50
1;1;conv2_3x3_6-14-36;NoAnomalies;0;8.226;(-0.139, 1.240, 0.073);(355.374, 358.899, 1.729);(-0.059, -0.066, 0.996);(-28.710, 5.082, -26.180);1.00;(30.292, 4.107, -26.340);(-0.427, -0.050, 0.903);(0.577, 0.450, 0.000);3.25;1.00;(-32.081, 5.138, -26.171);(-0.038, -0.067, 0.997);(0.558, 0.404, 0.000);3.50
1;1;conv2_3x3_6-14-36;NoAnomalies;0;8.251;(-0.139, 1.240, 0.073);(355.385, 358.935, 1.713);(-0.140, -0.063, 0.988);(-15.993, 4.872, -26.212);1.00;(30.293, 4.106, -26.330);(-0.426, -0.050, 0.903);(0.577, 0.450, 0.000);3.24;1.00;(-32.084, 5.138, -26.171);(-0.037, -0.066, 0.997);(0.558, 0.403, 0.000);3.51
1;1;conv2_3x3_6-14-36;NoAnomalies;0;8.275;(-0.139, 1.240, 0.073);(355.404, 358.970, 1.711);(-0.229, -0.059, 0.972);(-1.893, 4.639, -26.242);1.00;(30.293, 4.106, -26.317);(-0.425, -0.051, 0.904);(0.577, 0.450, 0.000);3.25;1.00;(-32.088, 5.139, -26.171);(-0.035, -0.065, 0.997);(0.558, 0.403, 0.000);3.52
1;1;conv2_3x3_6-14-36;NoAnomalies;0;8.311;(-0.139, 1.240, 0.073);(355.427, 359.026, 1.701);(-0.231, -0.059, 0.971);(-1.640, 4.633, -26.242);1.00;(30.296, 4.099, -26.305);(-0.425, -0.050, 0.904);(0.577, 0.450, 0.000);3.26;1.00;(-32.093, 5.142, -26.181);(-0.037, -0.064, 0.997);(0.559, 0.403, 0.000);3.54
1;1;conv2_3x3_6-14-36;NoAnomalies;0;8.334;(-0.139, 1.240, 0.073);(355.456, 359.106, 1.715);(-0.232, -0.058, 0.971);(-1.365, 4.628, -26.239);1.00;(30.302, 4.097, -26.300);(-0.424, -0.050, 0.904);(0.576, 0.450, 0.000);3.26;1.00;(-32.093, 5.143, -26.181);(-0.037, -0.063, 0.997);(0.559, 0.403, 0.000);3.54
1;1;conv2_3x3_6-14-36;NoAnomalies;0;8.357;(-0.139, 1.240, 0.073);(355.477, 359.132, 1.708);(-0.233, -0.058, 0.971);(-1.189, 4.625, -26.244);1.00;(30.306, 4.097, -26.299);(-0.424, -0.050, 0.904);(0.576, 0.450, 0.000);3.27;1.00;(-32.092, 5.143, -26.190);(-0.037, -0.064, 0.997);(0.559, 0.403, 0.000);3.55
1;1;conv2_3x3_6-14-36;NoAnomalies;0;8.381;(-0.139, 1.240, 0.073);(355.502, 359.199, 1.707);(-0.239, -0.057, 0.969);(-0.226, 4.609, -26.249);1.00;(30.307, 4.097, -26.300);(-0.423, -0.048, 0.905);(0.576, 0.450, 0.000);3.30;1.00;(-32.092, 5.143, -26.196);(-0.037, -0.064, 0.997);(0.559, 0.403, 0.000);3.54
1;1;conv2_3x3_6-14-36;NoAnomalies;0;8.407;(-0.139, 1.240, 0.073);(355.520, 359.249, 1.696);(-0.237, -0.057, 0.970);(-0.284, 4.612, -26.251);1.00;(30.309, 4.101, -26.306);(-0.422, -0.048, 0.905);(0.576, 0.450, 0.000);3.31;1.00;(-32.091, 5.143, -26.194);(-0.034, -0.064, 0.997);(0.558, 0.403, 0.000);3.55
1;1;conv2_3x3_6-14-36;NoAnomalies;0;8.433;(-0.139, 1.240, 0.073);(355.544, 359.294, 1.688);(-0.228, -0.057, 0.972);(-1.506, 4.638, -26.258);1.00;(30.314, 4.112, -26.342);(-0.420, -0.047, 0.906);(0.575, 0.449, 0.000);3.31;1.00;(-32.089, 5.143, -26.177);(-0.034, -0.065, 0.997);(0.558, 0.403, 0.000);3.58
1;1;conv2_3x3_6-14-36;NoAnomalies;0;8.456;(-0.138, 1.240, 0.073);(355.604, 359.362, 1.688);(-0.208, -0.058, 0.976);(-4.550, 4.693, -26.257);1.00;(30.320, 4.124, -26.376);(-0.420, -0.046, 0.906);(0.575, 0.449, 0.000);3.32;1.00;(-32.083, 5.143, -26.162);(-0.033, -0.065, 0.997);(0.558, 0.403, 0.000);3.60
1;1;conv2_3x3_6-14-36;NoAnomalies;0;8.479;(-0.139, 1.240, 0.073);(355.606, 359.359, 1.675);(-0.202, -0.058, 0.978);(-5.448, 4.714, -26.258);1.00;(30.328, 4.137, -26.425);(-0.419, -0.047, 0.907);(0.575, 0.449, 0.000);3.31;1.00;(-32.078, 5.143, -26.133);(-0.033, -0.065, 0.997);(0.558, 0.403, 0.000);3.62
1;1;conv2_3x3_6-14-36;NoAnomalies;0;8.503;(-0.138, 1.240, 0.073);(355.630, 359.351, 1.677);(-0.204, -0.058, 0.977);(-4.962, 4.712, -26.272);1.00;(30.334, 4.151, -26.477);(-0.417, -0.048, 0.908);(0.574, 0.449, 0.000);3.32;1.00;(-32.071, 5.143, -26.114);(-0.034, -0.064, 0.997);(0.557, 0.403, 0.000);3.63
1;1;conv2_3x3_6-14-36;NoAnomalies;0;8.528;(-0.138, 1.240, 0.073);(355.640, 359.366, 1.675);(-0.205, -0.058, 0.977);(-4.477, 4.704, -26.270);1.00;(30.334, 4.151, -26.477);(-0.416, -0.048, 0.908);(0.574, 0.449, 0.000);3.30;1.00;(-32.071, 5.143, -26.107);(-0.030, -0.063, 0.998);(0.557, 0.402, 0.000);3.60
1;1;conv2_3x3_6-14-36;NoAnomalies;0;8.552;(-0.138, 1.240, 0.074);(355.652, 359.394, 1.690);(-0.218, -0.056, 0.974);(-2.290, 4.670, -26.282);1.00;(30.334, 4.151, -26.477);(-0.416, -0.047, 0.908);(0.574, 0.449, 0.000);3.30;1.00;(-32.071, 5.144, -26.104);(-0.030, -0.063, 0.998);(0.557, 0.402, 0.000);3.60
1;1;conv2_3x3_6-14-36;NoAnomalies;0;8.577;(-0.138, 1.240, 0.074);(355.651, 359.424, 1.681);(-0.221, -0.057, 0.974);(-1.481, 4.658, -26.266);1.00;(30.329, 4.147, -26.441);(-0.415, -0.049, 0.909);(0.574, 0.449, 0.000);3.30;1.00;(-32.085, 5.149, -26.098);(-0.026, -0.063, 0.998);(0.557, 0.402, 0.000);3.61
1;1;conv2_3x3_6-14-36;NoAnomalies;0;8.601;(-0.138, 1.240, 0.074);(355.673, 359.476, 1.671);(-0.212, -0.057, 0.976);(-2.930, 4.681, -26.255);1.00;(30.327, 4.146, -26.436);(-0.414, -0.048, 0.909);(0.574, 0.449, 0.000);3.32;1.00;(-32.089, 5.150, -26.097);(-0.026, -0.063, 0.998);(0.557, 0.402, 0.000);3.61
1;1;conv2_3x3_6-14-36;NoAnomalies;0;8.636;(-0.138, 1.240, 0.074);(355.723, 359.593, 1.707);(-0.215, -0.056, 0.975);(-2.454, 4.674, -26.258);1.00;(30.326, 4.146, -26.436);(-0.414, -0.047, 0.909);(0.574, 0.449, 0.000);3.32;1.00;(-32.092, 5.151, -26.098);(-0.027, -0.063, 0.998);(0.557, 0.402, 0.000);3.61
1;1;conv2_3x3_6-14-36;NoAnomalies;0;8.661;(-0.137, 1.240, 0.074);(355.746, 359.687, 1.710);(-0.220, -0.056, 0.974);(-1.208, 4.655, -26.270);1.00;(30.326, 4.150, -26.445);(-0.412, -0.047, 0.910);(0.574, 0.449, 0.000);3.34;1.00;(-32.092, 5.150, -26.098);(-0.024, -0.063, 0.998);(0.556, 0.402, 0.000);3.61
1;1;conv2_3x3_6-14-36;NoAnomalies;0;8.685;(-0.137, 1.240, 0.074);(355.776, 359.814, 1.680);(-0.212, -0.056, 0.976);(-2.433, 4.679, -26.278);1.00;(30.330, 4.159, -26.483);(-0.412, -0.047, 0.910);(0.573, 0.449, 0.000);3.34;1.00;(-32.088, 5.150, -26.093);(-0.023, -0.063, 0.998);(0.556, 0.402, 0.000);3.59
1;1;conv2_3x3_6-14-36;NoAnomalies;0;8.712;(-0.137, 1.240, 0.074);(355.812, 359.936, 1.651);(-0.164, -0.059, 0.985);(-10.355, 4.818, -26.261);1.00;(30.347, 4.196, -26.570);(-0.412, -0.048, 0.910);(0.573, 0.449, 0.000);3.37;1.00;(-32.060, 5.150, -26.096);(-0.027, -0.062, 0.998);(0.556, 0.402, 0.000);3.63
1;1;conv2_3x3_6-14-36;NoAnomalies;0;8.736;(-0.137, 1.240, 0.074);(355.865, 0.076, 1.613);(-0.144, -0.059, 0.988);(-12.877, 4.862, -26.264);1.00;(30.357, 4.214, -26.642);(-0.409, -0.048, 0.911);(0.572, 0.449, 0.000);3.32;1.00;(-32.051, 5.150, -26.096);(-0.024, -0.062, 0.998);(0.555, 0.402, 0.000);3.63
1;1;conv2_3x3_6-14-36;NoAnomalies;0;8.761;(-0.137, 1.240, 0.074);(355.899, 0.186, 1.608);(-0.161, -0.057, 0.985);(-10.097, 4.823, -26.292);1.00;(30.380, 4.219, -26.654);(-0.406, -0.049, 0.913);(0.571, 0.449, 0.000);3.32;1.00;(-32.033, 5.150, -26.096);(-0.024, -0.060, 0.998);(0.555, 0.402, 0.000);3.65
1;1;conv2_3x3_6-14-36;NoAnomalies;0;8.788;(-0.136, 1.239, 0.074);(355.928, 0.311, 1.618);(-0.192, -0.056, 0.980);(-4.720, 4.764, -26.355);1.00;(30.430, 4.262, -26.676);(-0.400, -0.050, 0.915);(0.568, 0.448, 0.000);3.32;1.00;(-32.014, 5.154, -26.106);(-0.024, -0.058, 0.998);(0.554, 0.401, 0.000);3.65
1;1;conv2_3x3_6-14-36;NoAnomalies;0;8.801;(-0.136, 1.239, 0.074);(355.934, 0.400, 1.625);(-0.200, -0.055, 0.978);(-3.232, 4.754, -26.374);1.00;(30.444, 4.275, -26.687);(-0.400, -0.048, 0.915);(0.568, 0.447, 0.000);3.48;1.00;(-32.012, 5.163, -26.106);(-0.022, -0.059, 0.998);(0.554, 0.401, 0.000);3.65
1;1;conv2_3x3_6-14-36;NoAnomalies;0;8.826;(-0.136, 1.239, 0.074);(355.982, 0.696, 1.636);(-0.210, -0.057, 0.976);(-1.507, 4.793, -26.437);1.00;(30.493, 4.341, -26.745);(-0.403, -0.052, 0.914);(0.566, 0.446, 0.000);3.47;1.00;(-32.005, 5.225, -26.144);(-0.018, -0.060, 0.998);(0.553, 0.399, 0.000);3.63
1;1;conv2_3x3_6-14-36;NoAnomalies;0;8.862;(-0.134, 1.239, 0.073);(356.041, 1.361, 1.213);(-1.000, -1.000, -1.000);(-1.000, -1.000, -1.000);0.83;(29.585, 4.882, -26.777);(0.000, 0.000, 0.000);(0.615, 0.440, 0.000);-1.00;0.76;(-32.870, 5.332, -26.278);(0.000, 0.000, 0.000);(0.602, 0.408, 0.000);-1.00
1;1;conv2_3x3_6-14-36;NoAnomalies;0;8.887;(-0.132, 1.240, 0.073);(356.089, 2.395, 0.393);(-1.000, -1.000, -1.000);(-1.000, -1.000, -1.000);0.09;(29.820, 3.466, -26.945);(0.000, 0.000, 0.000);(0.665, 0.554, 0.000);-1.00;0.07;(-33.469, 5.439, -26.344);(0.000, 0.000, 0.000);(-1.000, -1.000, 0.000);-1.00
1;1;conv2_3x3_6-14-36;NoAnomalies;0;8.911;(-0.129, 1.240, 0.072);(356.090, 4.167, 359.329);(-1.000, -1.000, -1.000);(-1.000, -1.000, -1.000);0.02;(29.820, 3.466, -26.945);(0.000, 0.000, 0.000);(-1.000, -1.000, 0.000);-1.00;0.00;(-33.469, 5.439, -26.344);(0.000, 0.000, 0.000);(-1.000, -1.000, 0.000);-1.00
1;1;conv2_3x3_6-14-36;NoAnomalies;0;8.934;(-0.123, 1.241, 0.070);(355.957, 8.155, 357.716);(-1.000, -1.000, -1.000);(-1.000, -1.000, -1.000);0.08;(29.820, 3.466, -26.945);(0.000, 0.000, 0.000);(-1.000, -1.000, 0.000);-1.00;0.00;(-33.469, 5.439, -26.344);(0.000, 0.000, 0.000);(-1.000, -1.000, 0.000);-1.00
1;1;conv2_3x3_6-14-36;NoAnomalies;0;8.959;(-0.121, 1.241, 0.069);(355.777, 9.657, 357.951);(-1.000, -1.000, -1.000);(-1.000, -1.000, -1.000);0.07;(28.651, 3.412, -27.336);(0.000, 0.000, 0.000);(0.679, 0.512, 0.000);-1.00;0.00;(-33.469, 5.439, -26.344);(0.000, 0.000, 0.000);(-1.000, -1.000, 0.000);-1.00
1;1;conv2_3x3_6-14-36;NoAnomalies;0;8.986;(-0.117, 1.242, 0.068);(355.633, 11.818, 358.192);(-1.000, -1.000, -1.000);(-1.000, -1.000, -1.000);0.40;(28.038, 4.404, -27.523);(0.000, 0.000, 0.000);(0.721, 0.452, 0.000);-1.00;0.34;(-34.199, 5.511, -26.788);(0.000, 0.000, 0.000);(0.696, 0.422, 0.000);-1.00
1;1;conv2_3x3_6-14-36;NoAnomalies;0;9.009;(-0.114, 1.242, 0.067);(355.518, 13.842, 358.533);(-1.000, -1.000, -1.000);(-1.000, -1.000, -1.000);0.59;(28.279, 4.505, -27.292);(0.000, 0.000, 0.000);(0.699, 0.457, 0.000);-1.00;0.43;(-33.930, 5.382, -26.633);(0.000, 0.000, 0.000);(0.674, 0.423, 0.000);-1.00
1;1;conv2_3x3_6-14-36;NoAnomalies;0;9.033;(-0.111, 1.242, 0.065);(355.441, 15.793, 358.844);(-0.327, -0.136, 0.935);(-33.593, 5.158, -26.575);0.77;(28.558, 4.424, -27.174);(0.000, 0.000, 0.000);(0.682, 0.456, 0.000);-1.00;0.58;(-33.593, 5.158, -26.575);(-0.327, -0.136, 0.935);(0.658, 0.421, 0.000);3.45
1;1;conv2_3x3_6-14-36;NoAnomalies;0;9.057;(-0.105, 1.242, 0.063);(355.309, 19.800, 359.087);(-0.288, -0.104, 0.952);(-33.354, 4.945, -26.532);0.86;(28.885, 4.447, -27.075);(0.000, 0.000, 0.000);(0.667, 0.455, 0.000);-1.00;0.67;(-33.354, 4.945, -26.532);(-0.288, -0.104, 0.952);(0.643, 0.422, 0.000);3.73
1;1;conv2_3x3_6-14-36;NoAnomalies;0;9.080;(-0.103, 1.242, 0.063);(355.308, 20.807, 358.912);(-0.337, -0.101, 0.936);(-19.168, 4.701, -26.591);0.95;(29.127, 4.391, -26.980);(-0.613, -0.098, 0.784);(0.651, 0.456, 0.000);3.56;0.71;(-33.079, 4.790, -26.479);(-0.251, -0.100, 0.963);(0.628, 0.425, 0.000);3.70
1;1;conv2_3x3_6-14-36;NoAnomalies;0;9.103;(-0.101, 1.242, 0.062);(355.325, 22.727, 358.771);(-0.340, -0.107, 0.934);(-11.131, 4.603, -26.579);1.00;(29.380, 4.314, -26.903);(-0.567, -0.094, 0.819);(0.633, 0.457, 0.000);3.44;1.00;(-32.817, 4.757, -26.406);(-0.210, -0.110, 0.971);(0.612, 0.427, 0.000);3.72
1;1;conv2_3x3_6-14-36;NoAnomalies;0;9.128;(-0.099, 1.241, 0.061);(355.396, 24.431, 358.675);(-0.363, -0.104, 0.926);(-2.864, 4.515, -26.600);1.00;(29.604, 4.256, -26.877);(-0.548, -0.102, 0.830);(0.622, 0.460, 0.000);3.45;1.00;(-32.576, 4.753, -26.347);(-0.180, -0.101, 0.978);(0.599, 0.425, 0.000);3.66
1;1;conv2_3x3_6-14-36;NoAnomalies;0;9.152;(-0.097, 1.241, 0.060);(355.532, 25.914, 358.709);(-0.369, -0.111, 0.923);(4.938, 4.423, -26.644);1.00;(29.845, 4.174, -26.876);(-0.512, -0.110, 0.852);(0.607, 0.463, 0.000);3.46;1.00;(-32.387, 4.797, -26.296);(-0.138, -0.109, 0.984);(0.586, 0.424, 0.000);3.69
1;1;conv2_3x3_6-14-36;NoAnomalies;0;9.177;(-0.095, 1.240, 0.060);(355.716, 27.191, 358.810);(-0.363, -0.106, 0.926);(5.240, 4.410, -26.651);1.00;(29.881, 4.156, -26.884);(-0.501, -0.102, 0.859);(0.604, 0.462, 0.000);3.46;1.00;(-32.323, 4.797, -26.294);(-0.136, -0.107, 0.985);(0.583, 0.424, 0.000);3.65
1;1;conv2_3x3_6-14-36;NoAnomalies;0;9.202;(-0.093, 1.239, 0.059);(356.143, 29.589, 359.018);(-0.416, -0.065, 0.907);(-6.998, 4.716, -26.681);1.00;(29.104, 4.342, -27.032);(-0.619, -0.052, 0.784);(0.653, 0.451, 0.000);3.50;1.00;(-32.891, 4.984, -26.429);(-0.256, -0.071, 0.964);(0.622, 0.413, 0.000);3.75
1;1;conv2_3x3_6-14-36;NoAnomalies;0;9.230;(-0.093, 1.239, 0.059);(356.280, 29.917, 359.102);(-0.357, -0.059, 0.932);(-10.138, 4.708, -26.594);1.00;(29.300, 4.309, -26.962);(-0.581, -0.049, 0.813);(0.639, 0.450, 0.000);3.55;1.00;(-32.785, 4.937, -26.383);(-0.218, -0.062, 0.974);(0.613, 0.413, 0.000);3.78
1;1;conv2_3x3_6-14-36;NoAnomalies;0;9.253;(-0.092, 1.239, 0.058);(356.464, 30.692, 359.275);(-0.384, -0.064, 0.921);(-2.940, 4.633, -26.639);1.00;(29.436, 4.299, -26.929);(-0.572, -0.064, 0.818);(0.632, 0.453, 0.000);3.55;1.00;(-32.721, 4.940, -26.372);(-0.195, -0.061, 0.979);(0.606, 0.412, 0.000);3.75
1;1;conv2_3x3_6-14-36;NoAnomalies;0;9.279;(-0.091, 1.238, 0.058);(356.859, 32.087, 359.585);(-0.369, -0.066, 0.927);(-3.041, 4.651, -26.615);1.00;(29.544, 4.322, -26.910);(-0.560, -0.065, 0.826);(0.626, 0.452, 0.000);3.68;1.00;(-32.636, 4.950, -26.347);(-0.180, -0.064, 0.982);(0.601, 0.412, 0.000);3.74
1;1;conv2_3x3_6-14-36;NoAnomalies;0;9.303;(-0.091, 1.238, 0.058);(356.949, 32.176, 359.620);(-0.345, -0.066, 0.936);(-3.503, 4.681, -26.577);1.00;(29.650, 4.382, -26.869);(-0.528, -0.059, 0.847);(0.617, 0.448, 0.000);3.41;1.00;(-32.518, 4.942, -26.321);(-0.174, -0.070, 0.982);(0.596, 0.413, 0.000);3.71
1;1;conv2_3x3_6-14-36;NoAnomalies;0;9.328;(-0.091, 1.238, 0.059);(357.100, 32.629, 359.702);(-0.338, -0.065, 0.939);(-4.427, 4.699, -26.566);1.00;(29.705, 4.406, -26.863);(-0.536, -0.061, 0.842);(0.617, 0.447, 0.000);3.39;1.00;(-32.511, 4.939, -26.322);(-0.163, -0.066, 0.984);(0.594, 0.412, 0.000);3.73
1;1;conv2_3x3_6-14-36;NoAnomalies;0;9.351;(-0.091, 1.238, 0.059);(357.220, 33.068, 359.749);(-0.334, -0.063, 0.940);(-3.953, 4.700, -26.564);1.00;(29.731, 4.420, -26.852);(-0.525, -0.057, 0.849);(0.614, 0.446, 0.000);3.42;1.00;(-32.499, 4.938, -26.320);(-0.160, -0.066, 0.985);(0.593, 0.412, 0.000);3.72
1;1;conv2_3x3_6-14-36;NoAnomalies;0;9.375;(-0.091, 1.237, 0.059);(357.306, 33.485, 359.783);(-0.338, -0.064, 0.939);(-2.543, 4.700, -26.564);1.00;(29.769, 4.444, -26.831);(-0.524, -0.060, 0.850);(0.612, 0.446, 0.000);3.48;1.00;(-32.482, 4.938, -26.317);(-0.154, -0.065, 0.986);(0.591, 0.412, 0.000);3.71
1;1;conv2_3x3_6-14-36;NoAnomalies;0;9.400;(-0.091, 1.237, 0.059);(357.397, 33.866, 359.784);(-0.328, -0.064, 0.942);(-3.625, 4.711, -26.550);1.00;(29.789, 4.449, -26.821);(-0.521, -0.060, 0.852);(0.611, 0.445, 0.000);3.49;1.00;(-32.464, 4.938, -26.317);(-0.151, -0.065, 0.986);(0.590, 0.412, 0.000);3.70
1;1;conv2_3x3_6-14-36;NoAnomalies;0;9.437;(-0.092, 1.237, 0.060);(357.575, 34.633, 359.890);(-0.321, -0.061, 0.945);(-2.724, 4.692, -26.542);1.00;(29.817, 4.422, -26.794);(-0.511, -0.056, 0.857);(0.608, 0.445, 0.000);3.41;1.00;(-32.444, 4.939, -26.311);(-0.134, -0.064, 0.989);(0.587, 0.411, 0.000);3.65
1;1;conv2_3x3_6-14-36;NoAnomalies;0;9.450;(-0.092, 1.236, 0.060);(357.624, 34.848, 359.940);(-0.317, -0.061, 0.946);(-2.874, 4.693, -26.536);1.00;(29.820, 4.420, -26.788);(-0.511, -0.056, 0.857);(0.608, 0.445, 0.000);3.41;1.00;(-32.442, 4.939, -26.308);(-0.129, -0.064, 0.990);(0.586, 0.411, 0.000);3.64
1;1;conv2_3x3_6-14-36;NoAnomalies;0;9.475;(-0.093, 1.236, 0.061);(357.743, 35.311, 0.059);(-0.311, -0.062, 0.948);(-2.803, 4.699, -26.531);1.00;(29.827, 4.423, -26.781);(-0.505, -0.057, 0.861);(0.607, 0.445, 0.000);3.36;1.00;(-32.427, 4.949, -26.304);(-0.123, -0.064, 0.990);(0.584, 0.411, 0.000);3.61
1;1;conv2_3x3_6-14-36;NoAnomalies;0;9.511;(-0.094, 1.235, 0.062);(357.919, 35.997, 0.250);(-0.123, -0.064, 0.990);(-27.821, 4.938, -26.316);1.00;(29.961, 4.368, -26.452);(-0.481, -0.048, 0.875);(0.598, 0.442, 0.000);3.26;1.00;(-32.317, 4.983, -26.306);(-0.094, -0.065, 0.993);(0.576, 0.410, 0.000);3.56
1;1;conv2_3x3_6-14-36;NoAnomalies;0;9.536;(-0.094, 1.235, 0.062);(358.133, 36.712, 0.451);(-0.111, -0.061, 0.992);(-28.826, 4.946, -26.334);1.00;(30.029, 4.382, -26.402);(-0.477, -0.049, 0.877);(0.595, 0.442, 0.000);3.28;1.00;(-32.266, 4.979, -26.330);(-0.089, -0.061, 0.994);(0.573, 0.409, 0.000);3.37
1;1;conv2_3x3_6-14-36;NoAnomalies;0;9.560;(-0.095, 1.234, 0.063);(358.278, 37.232, 0.599);(-0.375, -0.054, 0.926);(14.072, 4.572, -26.456);1.00;(30.077, 4.391, -26.341);(-0.473, -0.050, 0.880);(0.593, 0.441, 0.000);3.14;1.00;(-32.237, 5.098, -26.787);(-0.066, -0.061, 0.996);(0.569, 0.409, 0.000);3.49
1;1;conv2_3x3_6-14-36;NoAnomalies;0;9.585;(-0.096, 1.234, 0.063);(358.388, 37.747, 0.729);(-0.473, -0.035, 0.880);(29.179, 4.429, -26.236);1.00;(30.031, 4.419, -26.230);(-0.478, -0.035, 0.878);(0.595, 0.437, 0.000);3.24;1.00;(-32.251, 5.145, -26.684);(-0.073, -0.056, 0.996);(0.570, 0.406, 0.000);3.38
1;1;conv2_3x3_6-14-36;NoAnomalies;0;9.610;(-0.096, 1.234, 0.064);(358.434, 38.246, 0.865);(-0.468, 0.036, 0.883);(19.278, 5.057, -26.635);1.00;(29.486, 4.964, -26.678);(-0.523, 0.037, 0.851);(0.622, 0.410, 0.000);3.24;1.00;(-32.477, 5.531, -26.417);(-0.157, 0.030, 0.987);(0.592, 0.377, 0.000);3.45
1;1;conv2_3x3_6-14-36;NoAnomalies;0;9.634;(-0.098, 1.234, 0.064);(358.400, 39.238, 1.120);(-0.292, 0.039, 0.956);(-8.766, 5.384, -26.527);1.00;(29.435, 5.046, -26.676);(-0.522, 0.044, 0.852);(0.624, 0.407, 0.000);3.27;1.00;(-32.590, 5.594, -26.434);(-0.139, 0.035, 0.990);(0.593, 0.374, 0.000);3.45
1;1;conv2_3x3_6-14-36;NoAnomalies;0;9.657;(-0.099, 1.234, 0.064);(358.336, 39.512, 1.207);(-0.274, 0.036, 0.961);(-11.558, 5.368, -26.510);1.00;(29.493, 4.991, -26.653);(-0.512, 0.038, 0.858);(0.620, 0.409, 0.000);3.13;1.00;(-32.548, 5.560, -26.437);(-0.145, 0.034, 0.989);(0.592, 0.375, 0.000);3.38
1;1;conv2_3x3_6-14-36;NoAnomalies;0;9.682;(-0.099, 1.234, 0.065);(358.260, 40.060, 1.326);(-0.311, 0.040, 0.949);(-3.153, 5.266, -26.537);1.00;(29.572, 4.980, -26.636);(-0.500, 0.044, 0.865);(0.615, 0.408, 0.000);3.10;1.00;(-32.534, 5.522, -26.449);(-0.131, 0.035, 0.991);(0.589, 0.376, 0.000);3.33
1;1;conv2_3x3_6-14-36;NoAnomalies;0;9.708;(-0.100, 1.234, 0.065);(358.205, 40.603, 1.422);(-0.301, 0.041, 0.953);(-4.285, 5.245, -26.496);1.00;(29.659, 4.965, -26.580);(-0.498, 0.044, 0.866);(0.612, 0.408, 0.000);3.18;1.00;(-32.464, 5.477, -26.427);(-0.127, 0.038, 0.991);(0.586, 0.377, 0.000);3.41
1;1;conv2_3x3_6-14-36;NoAnomalies;0;9.731;(-0.101, 1.234, 0.065);(358.113, 41.088, 1.501);(-0.275, 0.040, 0.961);(-6.644, 5.235, -26.440);1.00;(29.752, 4.937, -26.540);(-0.498, 0.044, 0.866);(0.609, 0.409, 0.000);3.15;1.00;(-32.407, 5.446, -26.369);(-0.107, 0.036, 0.994);(0.581, 0.378, 0.000);3.42
1;1;conv2_3x3_6-14-36;NoAnomalies;0;9.756;(-0.102, 1.234, 0.065);(358.010, 41.514, 1.583);(-0.264, 0.037, 0.964);(-8.079, 5.231, -26.399);1.00;(29.826, 4.894, -26.429);(-0.494, 0.034, 0.869);(0.605, 0.411, 0.000);3.07;1.00;(-32.390, 5.448, -26.379);(-0.108, 0.038, 0.993);(0.581, 0.377, 0.000);3.33
1;1;conv2_3x3_6-14-36;NoAnomalies;0;9.780;(-0.104, 1.234, 0.066);(357.859, 42.137, 1.737);(-0.222, 0.034, 0.974);(-13.632, 5.303, -26.499);1.00;(29.896, 4.866, -26.404);(-0.491, 0.032, 0.871);(0.603, 0.412, 0.000);3.01;1.00;(-32.379, 5.492, -26.540);(-0.101, 0.034, 0.994);(0.579, 0.378, 0.000);3.35
1;1;conv2_3x3_6-14-36;NoAnomalies;0;9.805;(-0.104, 1.234, 0.066);(357.738, 42.487, 1.834);(-0.243, 0.034, 0.969);(-9.032, 5.223, -26.364);1.00;(29.948, 4.848, -26.337);(-0.480, 0.035, 0.877);(0.599, 0.412, 0.000);3.15;1.00;(-32.369, 5.448, -26.379);(-0.094, 0.033, 0.995);(0.577, 0.378, 0.000);3.35
1;1;conv2_3x3_6-14-36;NoAnomalies;0;9.831;(-0.105, 1.235, 0.066);(357.657, 42.801, 1.913);(-0.278, 0.029, 0.960);(-2.195, 5.172, -26.433);1.00;(29.995, 4.880, -26.487);(-0.468, 0.028, 0.883);(0.595, 0.413, 0.000);2.96;1.00;(-32.356, 5.446, -26.383);(-0.089, 0.028, 0.996);(0.576, 0.379, 0.000);3.35
1;1;conv2_3x3_6-14-36;NoAnomalies;0;9.856;(-0.107, 1.235, 0.067);(357.519, 43.420, 2.039);(-0.276, 0.035, 0.960);(-1.985, 5.145, -26.418);1.00;(30.047, 4.839, -26.392);(-0.464, 0.035, 0.885);(0.593, 0.412, 0.000);3.10;1.00;(-32.317, 5.435, -26.442);(-0.088, 0.033, 0.996);(0.575, 0.379, 0.000);3.35
1;1;conv2_3x3_6-14-36;NoAnomalies;0;9.880;(-0.107, 1.235, 0.067);(357.518, 43.540, 2.058);(-0.243, 0.032, 0.969);(-6.044, 5.164, -26.370);1.00;(30.072, 4.821, -26.329);(-0.461, 0.032, 0.887);(0.591, 0.413, 0.000);3.09;1.00;(-32.282, 5.414, -26.400);(-0.077, 0.030, 0.997);(0.572, 0.380, 0.000);3.35
1;1;conv2_3x3_6-14-36;NoAnomalies;0;9.907;(-0.108, 1.235, 0.068);(357.495, 43.828, 2.134);(-0.285, -0.010, 0.959);(-3.965, 4.962, -26.466);1.00;(29.785, 4.644, -26.418);(-0.495, -0.003, 0.869);(0.607, 0.426, 0.000);3.25;1.00;(-32.331, 5.229, -26.507);(-0.096, -0.015, 0.995);(0.577, 0.395, 0.000);3.44
1;1;conv2_3x3_6-14-36;NoAnomalies;0;9.931;(-0.109, 1.235, 0.068);(357.440, 44.106, 2.228);(-0.278, -0.034, 0.960);(-6.834, 4.809, -26.474);1.00;(29.638, 4.498, -26.491);(-0.494, -0.025, 0.869);(0.611, 0.435, 0.000);3.09;1.00;(-32.458, 5.027, -26.461);(-0.118, -0.039, 0.992);(0.584, 0.405, 0.000);3.39
1;1;conv2_3x3_6-14-36;NoAnomalies;0;9.957;(-0.110, 1.235, 0.068);(357.257, 44.669, 2.402);(-0.296, -0.037, 0.954);(-3.241, 4.761, -26.444);1.00;(29.701, 4.474, -26.425);(-0.488, -0.034, 0.872);(0.608, 0.436, 0.000);3.11;1.00;(-32.453, 5.015, -26.460);(-0.115, -0.039, 0.993);(0.584, 0.405, 0.000);3.42
1;1;conv2_3x3_6-14-36;NoAnomalies;0;9.982;(-0.111, 1.235, 0.069);(357.214, 44.794, 2.452);(-0.285, -0.041, 0.958);(-4.738, 4.790, -26.474);1.00;(29.711, 4.499, -26.480);(-0.486, -0.039, 0.873);(0.607, 0.437, 0.000);3.11;1.00;(-32.447, 5.024, -26.469);(-0.113, -0.040, 0.993);(0.583, 0.405, 0.000);3.42
1;1;conv2_3x3_6-14-36;NoAnomalies;0;10.007;(-0.111, 1.236, 0.069);(357.204, 45.055, 2.546);(-0.248, -0.045, 0.968);(-10.290, 4.842, -26.502);1.00;(29.731, 4.521, -26.557);(-0.486, -0.044, 0.873);(0.607, 0.438, 0.000);3.16;1.00;(-32.443, 5.021, -26.471);(-0.109, -0.044, 0.993);(0.583, 0.406, 0.000);3.42
1;1;conv2_3x3_6-14-36;NoAnomalies;0;10.032;(-0.112, 1.236, 0.069);(357.203, 45.315, 2.634);(-0.224, -0.047, 0.973);(-13.930, 4.873, -26.500);1.00;(29.744, 4.521, -26.564);(-0.482, -0.043, 0.875);(0.606, 0.437, 0.000);3.18;1.00;(-32.437, 5.022, -26.473);(-0.109, -0.048, 0.993);(0.582, 0.407, 0.000);3.41
1;1;conv2_3x3_6-14-36;NoAnomalies;0;10.055;(-0.113, 1.236, 0.070);(357.150, 45.842, 2.760);(-0.093, -0.054, 0.994);(-32.085, 5.089, -26.626);1.00;(29.844, 4.866, -27.678);(-0.464, -0.051, 0.884);(0.600, 0.436, 0.000);3.20;1.00;(-32.423, 5.090, -26.620);(-0.091, -0.054, 0.994);(0.579, 0.407, 0.000);3.47
1;1;conv2_3x3_6-14-36;NoAnomalies;0;10.080;(-0.113, 1.237, 0.070);(357.120, 45.968, 2.719);(-0.088, -0.066, 0.994);(-32.365, 5.256, -27.014);1.00;(29.900, 5.173, -28.483);(-0.457, -0.065, 0.887);(0.597, 0.435, 0.000);3.16;0.96;(-32.365, 5.256, -27.014);(-0.088, -0.066, 0.994);(0.576, 0.406, 0.000);3.32
1;1;conv2_3x3_6-14-36;NoAnomalies;0;10.104;(-0.113, 1.237, 0.070);(357.075, 46.200, 2.640);(-1.000, -1.000, -1.000);(-1.000, -1.000, -1.000);0.43;(30.373, 4.020, -27.537);(0.000, 0.000, 0.000);(0.575, 0.487, 0.000);-1.00;0.28;(-32.286, 5.296, -26.386);(0.000, 0.000, 0.000);(0.557, 0.445, 0.000);-1.00
1;1;conv2_3x3_6-14-36;NoAnomalies;0;10.130;(-0.113, 1.237, 0.070);(357.072, 46.397, 2.529);(-1.000, -1.000, -1.000);(-1.000, -1.000, -1.000);0.22;(30.441, 3.965, -26.965);(0.000, 0.000, 0.000);(0.547, 0.503, 0.000);-1.00;0.01;(-32.142, 5.321, -26.369);(0.000, 0.000, 0.000);(0.543, 0.451, 0.000);-1.00
1;1;conv2_3x3_6-14-36;NoAnomalies;0;10.155;(-0.114, 1.238, 0.071);(357.073, 46.582, 2.406);(-1.000, -1.000, -1.000);(-1.000, -1.000, -1.000);0.32;(30.395, 4.864, -26.555);(0.000, 0.000, 0.000);(0.581, 0.483, 0.000);-1.00;0.20;(-32.007, 5.513, -27.704);(0.000, 0.000, 0.000);(0.553, 0.418, 0.000);-1.00
1;1;conv2_3x3_6-14-36;NoAnomalies;0;10.179;(-0.114, 1.239, 0.072);(356.965, 46.928, 2.134);(-1.000, -1.000, -1.000);(-1.000, -1.000, -1.000);0.53;(30.414, 5.017, -27.725);(0.000, 0.000, 0.000);(0.571, 0.442, 0.000);-1.00;0.33;(-31.928, 5.232, -27.069);(0.000, 0.000, 0.000);(0.548, 0.417, 0.000);-1.00
1;1;conv2_3x3_6-14-36;NoAnomalies;0;10.204;(-0.114, 1.239, 0.072);(356.913, 47.005, 2.008);(-0.009, -0.086, 0.996);(-31.554, 5.235, -27.404);0.73;(30.441, 4.936, -27.598);(-0.396, -0.087, 0.914);(0.568, 0.439, 0.000);3.27;0.58;(-31.882, 5.236, -27.403);(-0.007, -0.086, 0.996);(0.547, 0.413, 0.000);3.48
1;1;conv2_3x3_6-14-36;NoAnomalies;0;10.230;(-0.114, 1.239, 0.073);(356.871, 47.140, 1.857);(-0.006, -0.095, 0.995);(-30.659, 5.148, -27.215);0.78;(30.472, 4.856, -27.644);(-0.394, -0.109, 0.913);(0.566, 0.446, 0.000);3.21;0.66;(-31.868, 5.154, -27.206);(0.002, -0.095, 0.995);(0.545, 0.416, 0.000);3.33
