1.2806769135547762,66.69745732480587,66.69184180642543,67.04154026714534
1.6140307406643286,66.91050288997612,67.21786794783188,68.40704289060491
1.9473845677738808,67.48473758113983,68.15368631697733,70.07406008860892
2.280738394883433,67.21432598694606,68.06499383893309,70.69309469351205
2.614092221992985,67.21746380616105,68.29615485308658,71.6886659898432
2.9474460491025374,67.74205448974725,68.77001558553775,73.15323998106992
3.28079987621209,67.2380029641524,68.12021492926775,73.51920970475179
3.614153703321642,67.459098937916,67.76807258884574,74.22306863596036
3.9475075304311944,68.47943517831087,68.01021479955868,75.29391661878341
4.280861357540747,68.63269985782911,67.66440916864236,75.28381234528392
4.614215184650298,68.97404280773392,67.89717051766702,75.50864694988984
4.947569011759851,69.84776337858105,68.61077747692238,76.09244146913895
5.280922838869403,69.37930221594077,68.63335806116697,75.66281240026325
5.614276665978956,69.55297297604965,69.46550461367893,75.94361647606038
5.947630493088509,68.79071210396808,69.64107645696451,75.14622974392063
6.28098432019806,68.16124637310212,70.25917711195048,75.09092227254047
6.614338147307613,67.85606328271683,71.00346816444612,75.49927688871563
6.947691974417165,66.84625231935209,70.39191109919874,74.94975862736037
7.281045801526718,66.46398597342734,70.42500200729184,75.11642697140024
7.614399628636269,66.69929542104283,70.84061850182357,75.72233966123353
7.947753455745822,66.1433194273017,70.42905549045136,75.55013931335364
8.281107282855373,66.38026032642834,70.40709877418128,75.70816775071746
8.614461109964926,65.92802294943935,69.55102631169052,74.96209463502848
8.94781493707448,65.66816677250081,69.0219809886216,74.92195568464402
9.28116876418403,66.21739094345617,68.79056800059014,75.15882886302981
9.614522591293582,65.98141619891217,68.16968016499088,74.67659509392124
9.947876418403135,66.07777765228538,67.72503067272588,74.92510529502437
10.281230245512688,66.80514841302866,67.52001920786778,75.48598967354758
10.61458407262224,66.9431660040765,66.50411571479499,75.12092697961486
10.94793789973179,67.48940876164366,65.93780194342432,75.69199248935567
11.281291726841346,67.03677162907736,64.65691523361306,75.5678696446695
11.614645553950897,67.06867828426526,64.09957793741269,75.93906363034951
11.947999381060448,67.61190340007619,64.27445354535412,76.85465918954608
12.281353208170001,67.21612050943918,63.534369476928106,76.52830971211368
12.614707035279555,67.24494536126952,63.39559434420342,76.28951021759507
12.948060862389106,67.81058222236304,63.503615216016314,76.98024913958916
13.281414689498657,67.74773348639808,62.832227980192066,76.52998476753186
13.61476851660821,68.37723497630907,62.712616327867,76.32715312796267
13.948122343717763,68.00962592042325,62.08158937186245,75.6129596339866
14.281476170827315,68.08970472094006,62.19440047975873,75.60211214644033
14.614829997936868,68.74492974126684,62.92283706141739,76.0042978578965
14.94818382504642,68.6502118894714,62.813415881678765,75.51681303367025
15.281537652155972,68.66165888820146,63.277122401580826,75.57376114147966
15.614891479265523,67.80960382876637,62.62571127141455,74.88659670614804
15.948245306375076,67.35803637453768,62.46940908197664,74.68193495339158
16.281599133484626,67.68459721933709,62.949276428728375,74.99643522279867
16.61495296059418,67.18871443299378,62.59176003178086,74.29014856304777
16.948306787703736,67.3047011600791,62.70193942986414,74.1902857214005
17.281660614813283,66.97832644930499,62.225879180048686,73.4542395731398
17.61501444192284,67.13245399857324,62.05450578922357,73.49719315066125
17.94836826903239,68.15286558547874,62.64424462110592,74.14898260674876
18.28172209614194,68.44004320923152,62.61502896474785,74.03332043438367
18.615075923251496,69.19306372131679,62.99861411548889,74.11232852393378
18.948429750361047,70.20267902975013,63.80958098854804,74.7645654807936
19.2817835774706,70.1797087705197,63.34617211735367,74.59980054307758
19.615137404580153,70.80329073321063,63.19551852921282,74.9128819750666
19.9484912316897,70.48321074490079,62.40579136190298,74.06819447661394
20.281845058799256,70.84454293739482,62.22922504438719,73.84691931470454
20.61519888590881,71.30385264149731,62.69340661464653,73.7527580645716
20.94855271301836,70.90664132512624,62.360347314847886,72.93956516470709
21.281906540127913,71.03759753037852,62.76110182921419,72.90341384319814
21.615260367237468,71.69384234414912,63.611041045570644,73.45345613682052
21.948614194347016,71.10582798145145,63.66268942740043,73.11806657109071
22.28196802145657,70.98281190393169,64.37196618847108,73.30439036865266
22.615321848566122,71.3720389223646,65.52623997539614,73.41127790216954
22.948675675675673,71.07221803015481,65.78410211779241,72.23873888752404
23.282029502785228,71.49253630091026,66.61285674511839,71.93818897949706
23.615383329894776,70.5191602912756,66.52945341334532,71.07568122121091
23.94873715700433,70.03005528522358,66.85885038805428,71.1923674689211
24.282090984113886,68.91552226673427,66.69723985454625,70.41928169236398
24.615444811223433,68.33834089792258,66.85659919708168,70.0704773894183
24.94879863833299,68.45391894420874,67.54741691090656,69.80564966519006
25.282152465442543,68.13601739806188,67.45083921060382,68.74288954886974
25.61550629255209,68.02580530808119,67.79905095098232,68.32127444588743
25.948860119661646,68.15455341473738,68.41121327337764,68.30891186536596
26.282213946771197,67.35410715268992,67.94262141366751,67.78228087360927
26.61556777388075,67.22388409082411,67.78611599118192,67.82965392217508
26.948921600990303,65.98020065824637,66.70727047664482,67.14497491689761
27.28227542809985,65.07233331223676,66.00948656806159,66.57194839391461
27.615629255209406,64.68336794991133,65.49482634199853,66.35431741936819
27.94898308231896,63.74879966221515,64.22758035230693,65.64341476018247
28.28233690942851,62.89366514407348,63.46374371957005,65.51342108460175
28.615690736538063,62.64914777979,63.247445431057145,65.72937443381306
28.949044563647618,61.875014617704444,62.41905481464806,65.24580578039992
29.282398390757166,61.40372417356418,61.99890499525821,65.23851985296915
29.61575221786672,61.74474213458014,62.24434490833574,65.53198869544514
29.949106044976272,61.039856656656,61.66821093716318,65.13786348973636
30.282459872085823,60.63589822307391,61.87689946504692,65.07464311683589
30.615813699195378,60.539420200652366,62.36304381185412,65.36047533870988
30.949167526304926,59.9461626183173,62.198208201321805,64.82078061749411
31.28252135341448,59.90484395496198,62.18244791961152,64.31767638070576
31.615875180524036,60.35621161607184,62.3036203675204,64.35075727310404
31.949229007633587,59.75141380988085,61.32282615401384,63.79121824231189
32.28258283474314,59.417743940115415,60.86191464270952,63.624193648281064
32.615936661852686,59.58345311360006,60.96492718125304,63.854264121463274
32.94929048896225,58.85408663953854,60.57721265150636,63.414940121157905
33.282644316071796,58.47248479964993,60.569983780711574,63.590081368182126
33.61599814318134,58.44366019648636,61.17559613365893,64.22838098458445
33.9493519702909,57.63926614469809,61.15306148857996,64.08816287993889
34.28270579740045,57.380201670878336,61.58652524661842,64.15934428721829
34.61605962451,57.44182078177548,62.47590609073494,64.46971020959012
34.949413451619556,56.986180864471436,62.549127040474865,64.40831080432872
35.28276727872911,56.949645452175346,63.031887188244326,64.49820642408997
35.61612110583866,57.46334847562399,63.97718782219438,64.7074624396977
35.94947493294821,57.20793892283908,64.37857307869626,63.855896048805256
36.28282876005777,57.59299967985896,65.2172407269772,63.1961930426945
36.616182587167316,58.340199028272814,66.29384326202396,63.11311748191458
36.94953641427687,58.472908634413216,66.4311916100673,62.74956624438014
37.282890241386426,58.82243908904953,66.79404905336351,62.94133320053129
37.61624406849597,59.81485207189423,67.58973840432687,63.55365692153674
37.94959789560552,60.38870850010984,67.4975399454496,63.672515632480376
38.28295172271508,61.4381154337079,68.02470466681537,64.15347231839036
38.61630554982463,61.72613740949436,67.47077810810032,63.972138994209146
38.94965937693418,62.4932395590334,67.26865278494907,63.92964472772296
39.28301320404374,63.46370204160109,67.51451298275899,64.18174819773583
39.61636703115329,63.40853317309113,66.88044508860908,63.716062075644416
39.949720858262836,63.6192825081075,66.69070399118617,63.80819424914249
40.2830746853724,64.25103436623698,66.97814984624041,64.34517268213686
40.616428512481946,64.17603340165141,66.39537521624455,63.98417394530129
40.94978233959149,64.68549711939214,65.99641860518443,63.78589685801835
41.28313616670105,65.74838113860169,66.19094826616339,64.07763819706436
41.6164899938106,65.80687251822317,65.3461949746443,63.989216841785804
41.94984382092015,66.42985934757264,64.86661898739882,64.37621222284889
42.283197648029706,67.41294966021381,64.98147114504147,65.24916538425873
42.61655147513926,67.27395845381074,64.47161221185787,65.54387064136608
42.94990530224881,67.39709685987833,64.391194212001,66.46558902962937
43.28325912935836,68.40878053446242,64.57649573308728,67.8433251972964
43.61661295646792,68.44315784554811,63.94222166896566,67.77064593246267
43.949966783577466,69.02996729068508,63.991763210772454,67.96490623192348
44.28332061068702,68.63798808886399,63.404274514721074,67.5808437162097
44.616674437796576,68.68241598065126,63.48608183784103,67.96807906352878
44.95002826490612,69.26487121872567,64.14171098817671,69.03935744686757
45.28338209201567,69.25155874346669,64.250980711182,69.49538828352865
45.61673591912523,69.56896920338912,64.7075265856948,70.30005959907525
45.95008974623478,70.78615044186222,65.51147400763055,71.54943607102436
46.28344357334433,71.12920581419522,65.22973175453589,71.91335710528018
46.61679740045389,71.95125464058461,65.55028347316588,72.46857461362336
46.95015122756344,71.90822691288321,65.36219659079165,72.517662913978
47.283505054672986,72.0210131187546,65.46138467122957,73.0519746092559
47.61685888178255,71.27021953050432,64.47427553662453,72.37757247662044
47.950212708892096,71.03739320101809,63.93797638493176,72.11866911027394
48.28356653600164,71.44457545926107,63.7776828164652,72.42628399776159
48.6169203631112,71.06133295015707,63.104904813555244,71.61074845195398
48.95027419022075,71.44300458831901,62.84270083512723,71.46795964646559
49.2836280173303,70.62479610510069,61.95229854119114,70.14076106403242
49.616981844439856,70.02635141181311,61.39912484633699,69.47185366992079
49.95033567154941,69.66408710150465,61.424162466559196,69.11453744428374
50.28368949865896,68.5613869665211,60.94322889523508,67.87381349606888
50.61704332576851,68.36423972149545,61.0012407004913,67.02834155387417
50.95039715287807,68.87513139901145,61.31634279913668,66.83011700547118
51.283750979987616,68.31731734831766,60.94763661903675,65.81027856994409
51.61710480709717,68.21334862065972,60.887351960152465,65.47669026233298
51.950458634206726,68.63126421665791,61.51424169136731,65.50602326841947
52.28381246131627,68.07985888529903,61.58009462816654,65.05698694595903
52.61716628842582,67.95223580925023,61.85814520631385,65.51305631875293
52.95052011553538,67.1294948736697,61.131466033156784,65.40926728460383
53.28387394264493,66.86250371116279,60.94836200123078,65.4417434356064
53.61722776975448,67.4811708802748,61.30264584638061,65.4996054561625
53.95058159686404,67.32088542861341,60.69534288420155,64.64916037451441
54.28393542397359,67.41989961336121,60.856883950818485,64.04626259543683
54.617289251083136,67.66238343803698,61.72740563300384,63.967647815512734
54.9506430781927,67.00069616401058,61.702161846503316,62.970350165276436
55.283996905302246,66.79846348723203,62.26375393501695,62.475344393666504
55.61735073241179,67.38576409490658,63.16672371713763,62.664077027997045
55.95070455952135,67.18203576897695,63.08301366956424,62.42568095084092
56.2840583866309,67.71454917929724,63.129833935909346,63.068801273523874
56.61741221374045,67.3369879968824,62.846178034745456,63.122775171897636
56.950766040850006,67.01791557089432,62.653036757753966,63.502189987250865
57.28411986795956,67.27145680344759,62.86332293640047,64.37877065710028
57.61747369506911,66.84038071109501,62.1101639605359,64.42376859390139
57.95082752217866,66.82750341289497,61.958354104128844,64.94515126945774
58.28418134928822,67.05622144250043,62.24810219478283,66.14491336998212
58.617535176397766,66.37517438012588,61.837751884943415,66.64663273893241
58.95088900350732,66.0867585995097,61.819794308821805,67.58813738760178
59.284242830616876,66.45339781770357,62.33835677743956,69.09067778237825
59.61759665772642,66.07462737740647,62.06785889899693,69.59778899981863
59.95095048483597,65.62834806857167,62.16886857492945,70.4167625185925
60.28430431194553,64.54225145322485,61.64399485416705,70.54755460339058
60.61765813905508,63.987020459128345,61.495097231316585,71.10487439315689
60.95101196616463,63.80560694132869,61.90054774880195,71.76696636995135
61.28436579327419,62.7459760155203,61.38100755496252,71.44768317962411
61.61771962038374,62.02560312836663,61.03196866526753,71.891083597413
61.951073447493286,61.77913698495091,61.30845400928295,72.71674089523528
62.28442727460285,60.72962711394623,60.87285754921136,72.20921870827395
62.617781101712396,60.090646100454364,60.93462596545979,72.06051743343114
62.95113492882194,59.867829467152916,61.667152866773634,72.39909171629245
63.2844887559315,59.02424691824867,61.566028608287446,71.9545571775353
63.61784258304105,58.64553203083312,61.99100435674524,72.14471486601911
63.9511964101506,59.14945154936989,62.71753656847282,73.1917972009998
64.28455023726016,59.16217030789384,62.63075489628763,73.33186339176117
64.61790406436971,59.7170420708878,62.98932306732377,74.13896184296374
64.95125789147926,60.60897821025998,64.03068977198488,75.38595619012662
65.28461171858882,60.3816017713484,64.27484609954737,75.66227036251715
65.61796554569835,60.30769777086553,65.03922832360779,76.3124726965878
65.95131937280792,59.65129043240288,65.10122879429777,76.33837337960047
66.28467319991748,59.63053598274985,65.83415949197192,76.95869842521915
66.61802702702701,59.82578690151647,67.11369379194528,77.88848345606155
66.95138085413657,58.87688412747097,67.33360163088058,78.16039064975341
67.28473468124614,58.214215735381494,67.7963046170374,78.57402031529271
67.61808850835567,58.14126697376093,68.85646967176896,79.50246326557169
67.95144233546523,57.44896256866896,69.10062710790832,79.23378559181505
68.28479616257479,57.13693116489053,69.69514815491293,79.42015885583788
68.61814998968433,56.19716011882742,69.81829676769574,78.3393137300865
68.95150381679389,55.68476878932002,70.63862839771966,77.5729852661878
69.28485764390345,55.52786978204247,72.08290042309457,77.22654717819945
69.61821147101298,54.67502432029896,72.45872480416664,76.19359587332627
69.95156529812255,54.41251424353336,73.02694251685585,75.84631673533845
70.28491912523211,54.45838215026828,74.14134207537279,76.01299753864704
70.61827295234164,54.249078215405355,74.03477723429721,75.24494971855107
70.9516267794512,54.43734229072848,73.90233749569016,74.96416907486989
71.28498060656077,53.99761523627708,72.61111781653443,73.6383491270867
71.6183344336703,53.93038063749173,71.95248078370084,73.09264355485492
71.95168826077986,54.46099051076187,71.81112406087227,73.0823688854325
72.28504208788942,54.498952957998654,70.6727024373681,72.0721757029174
72.61839591499896,54.62225827641079,70.13417923973029,71.52140905030984
72.95174974210852,55.261556638521675,70.38702344000826,71.53056810014255
73.28510356921807,55.38434858061987,69.73208717503783,70.998475361498
73.61845739632761,55.988364745569626,69.40044984957896,70.80560233773252
73.95181122343718,55.71015332004782,68.28316036864375,69.74214757766661
74.28516505054672,55.83509295083696,68.09571746648507,69.20887158457847
74.61851887765627,56.69411818295897,68.52713285953529,69.2348304944661
74.95187270476583,56.99752196336851,68.10287866388495,68.55610052673103
75.28522653187538,57.6364884778497,68.16805494883053,68.2877540404411
75.61858035898493,58.88752125217772,68.61011439060708,68.66786075181548
75.95193418609449,59.44410020501733,68.28802672752525,68.79279784480053
76.28528801320404,60.44397202093249,68.29264851565077,69.83556363932671
76.61864184031359,60.55076457632511,67.72025997418956,70.04953076191964
76.95199566742315,60.85195952668349,67.87075981080693,70.49598958224428
77.2853494945327,61.81785115290029,68.54976417701114,71.45462922125053
77.61870332164224,61.86273145475721,68.43482332739882,71.4982856499858
77.9520571487518,62.482580725773445,68.8333471821149,71.97866494655007
78.28541097586135,62.332488745448494,68.45074901848517,71.72329439594846
78.6187648029709,62.83889614807903,68.55596315706056,71.77572511375244
78.95211863008046,64.14679876121126,69.40969043728153,72.2597554244122
79.28547245719001,64.61890999860518,69.43325990426455,72.32260499834344
79.61882628429956,65.48839103366582,69.77614404637748,73.23612022006667
79.95218011140912,65.65888959329118,69.32430960727811,73.40446452359139
80.28553393851865,66.50243340598892,69.17884442447021,73.83602948180109
80.61888776562822,66.45168097498174,67.9502277783307,73.16631758039793
80.95224159273778,66.8544778156878,67.03542988194575,73.40539150983616
81.28559541984731,67.44603806468739,66.57219521304289,74.20706880584677
81.61894924695687,67.10045482417623,65.23068394614495,73.66684217503138
81.95230307406644,67.03056861700611,64.25841049274001,73.7690595317152
82.28565690117597,66.15108989621716,62.88560537393093,73.48108301331355
82.61901072828553,66.01228852961488,62.48529129140645,73.59160969315558
82.95236455539509,66.44148766574685,62.66399074628029,74.07537092961911
83.28571838250463,65.73301081087874,61.840223878795236,73.74411527749447
83.61907220961419,65.46521661356545,61.69590920787025,73.6116563039234
83.95242603672375,65.35927038054463,62.078877475370696,74.24779002652559
84.28577986383328,64.2854060010181,61.687299751239394,73.69034302462103
84.61913369094285,63.91999542839197,61.77006804634639,73.47954334695544
84.95248751805241,64.31883305065662,62.233455857168984,73.67878020007241
85.28584134516194,63.90022034756703,61.70716924209261,73.10347113466585
85.6191951722715,64.0250210006355,61.14670766509822,73.00055218102595
85.95254899938107,63.174007443991286,60.02604500509106,72.07503271731049
86.2859028264906,62.74693471621615,59.652149007597004,71.50759308792914
86.61925665360016,62.591965385467965,59.983408938464876,71.32493159760185
86.95261048070972,61.616292838549015,59.45056757819066,70.6202548535689
87.28596430781926,61.05564586234342,59.313500556578575,70.53586296039519
87.61931813492882,61.15302096784619,59.761478754765236,70.94429415397039
87.95267196203837,60.55787291266633,59.534111996951815,70.60958799128082
88.28602578914791,60.29601547590567,59.75866115694777,71.01006593555017
88.61937961625748,60.68325744997018,60.47199255571408,71.42745810593652
88.95273344336702,60.398608534553716,60.175351103405006,70.90235009717303
89.28608727047657,60.604837368401235,60.50563485835184,70.60816205414012
89.61944109758613,61.273672262812326,61.15378397853778,70.69719083072687
89.95279492469568,61.08650099245218,61.352155444712686,69.91921374889559
90.28614875180523,61.431708745598364,62.157319670278206,69.76204160924158
90.61950257891479,61.00602766819473,62.249049426896505,68.81947391275976
90.95285640602434,61.667967580806916,62.7683241519251,68.15392777709425
91.28621023313389,62.73518188816097,63.490001011781104,68.03305868374258
91.61956406024345,62.94653021905972,63.224977586280346,66.79654528488933
91.952917887353,63.5597975484054,63.623798622624776,66.29094495083206
92.28627171446254,64.59685263629711,64.54119636919489,66.42238490234078
92.6196255415721,64.83551389343735,64.64649978095716,66.16129208418944
92.95297936868165,65.40039875563119,65.06686304944161,66.55140785248781
93.2863331957912,66.44318873789864,65.77361103472035,67.48152043070921
93.61968702290076,66.34716581600937,65.75159687047844,67.59567663352854
93.95304085001031,66.75091134258888,66.28156701532431,68.08019604321312
94.28639467711986,66.23352984793091,65.94373503759056,67.88155480966957
94.61974850422942,66.33981450652931,66.0034030624006,68.07701105020801
94.95310233133895,66.59544048436815,66.64453012792573,68.79965048072658
95.28645615844852,66.00208874391855,66.72169617173859,68.68809119849452
95.61980998555808,65.7853873083834,67.24877262832656,69.09078603690173
95.95316381266761,66.24417003156596,68.15372894652089,70.0689990557357
96.28651763977717,65.92207938096782,68.08515022244596,69.73420780031489
96.61987146688674,66.03210834706402,68.52535473871818,69.99266281424809
96.95322529399627,66.36728283822987,69.32665424763633,70.6501964287416
97.28657912110583,65.87690968649267,69.32893985165553,70.42662615984773
97.61993294821539,66.02122576274195,69.9074939832771,70.64200758404297
97.95328677532493,66.8223523821256,70.77928941810934,71.22115207254232
98.28664060243449,66.68992014967205,70.18871383210357,71.20842636805828
98.61999442954405,67.43834894494138,70.11545581733903,71.93234380970885
98.95334825665358,67.71580373463718,69.2525038355468,71.81042733365355
99.28670208376315,68.46291573099431,69.05814846280536,72.19664880736534
99.62005591087271,69.68958672420632,69.46769659774621,73.29910162565405
99.95340973798224,69.88520779813011,69.10464318754507,73.52593815410289
100.2867635650918,70.63234314344342,69.47084299082172,74.21539429412826
100.62011739220137,70.84306989274724,69.32322913647012,74.07544468452886
100.9534712193109,71.41730569986251,69.81984572168824,74.31289482658588
101.28682504642046,72.29879364220113,70.90776451452562,75.14828848458524
101.62017887353002,72.52399451331324,71.03643580222548,75.18929798732981
101.95353270063956,73.57378214839287,71.67595992275434,75.501622710734
102.28688652774912,75.05981527502345,73.15996209526509,76.24794981365547
102.62024035485867,74.85912461946701,73.60809976483715,76.02200565257381
102.95359418196821,75.0326734906414,74.77515969598907,76.10240904033462
103.28694800907778,74.6048003302848,75.19525535921576,74.93199041283651
103.62030183618732,74.82392833499581,75.73709757119022,74.60480587711722
103.95365566329687,76.07328698036164,76.77812954111425,74.9259160393373
104.28700949040643,76.54905683576716,76.77210047761805,74.47659997134745
104.62036331751598,77.58188512439641,77.43414748389009,74.91858219133438
104.95371714462553,78.87931741132749,78.78027835208633,75.79702603430309
105.28707097173509,79.16285816571768,79.12541543833638,75.86788576879512
105.62042479884464,79.61940295608255,79.7697128223208,76.32564797471622
105.95377862595419,78.75085499535638,78.91119101055371,75.52418230635841
106.28713245306375,78.4763930933465,78.16698533273879,75.29805261068249
106.6204862801733,78.65754282056827,78.14445508418565,75.72124601975537
106.95384010728284,77.77998140860483,77.00343250127173,75.64363524539938
107.2871939343924,77.57448820373807,76.41965411425936,75.99513793122655
107.62054776150195,77.87626808152673,76.1147881017607,76.67491257369812
107.9539015886115,77.2126149242354,74.9486728707005,76.57928556038291
108.28725541572106,77.27300912647505,74.61576240470251,77.130028547352
108.62060924283061,76.230734995831,73.88497188017253,76.53586885681803
108.95396306994016,75.71162881011549,73.51787692925937,76.11060045927339
109.28731689704972,74.36824636590907,72.4592157044593,75.17621724788594
109.62067072415927,73.60437635646274,71.79191541151576,75.00901524782691
109.95402455126882,73.4449804855248,71.41366959188827,75.10034720068607
110.28737837837838,72.4198782180699,70.04994801194654,74.27457151112495
110.62073220548791,72.11671651166837,69.30666363418052,74.54341279647099
110.95408603259747,72.59681039617284,68.82181231360379,75.38300122848817
111.28743985970704,72.56666675527684,67.65679925019774,75.33236791125591
111.62079368681657,73.17461124842413,66.9824994196032,75.66990819033934
111.95414751392613,74.41503882386209,67.03979364532886,76.36221921828414
112.28750134103569,74.32564334508207,66.503967887942,75.88280481461267
112.62085516814523,74.5783948309305,66.86256778695284,75.74497782958532
112.95420899525479,73.87125254413856,66.8501187941318,74.94115779513935
113.28756282236435,73.74466074962125,67.27667395648285,74.8348415629112
113.62091664947388,74.42003085968686,68.1144223807857,75.04913424378461
113.95427047658345,73.74644500026719,67.97970324512136,74.20393750456802
114.28762430369301,73.69613125062126,68.33211212716537,73.59898935723328
114.62097813080254,73.11155175718787,67.71239427485132,72.16594708701696
114.9543319579121,73.26737498860675,67.43929971468827,71.2971281307489
115.28768578502167,72.92486489092805,66.32412494588971,69.95391502143953
115.6210396121312,73.29450292890255,65.79450323705164,69.24079037064048
115.95439343924076,73.79338763247023,65.94165345649421,68.7014329067863
116.28774726635032,73.5948692143619,65.52523849051083,67.28349706977211
116.62110109345986,73.68883744961644,65.5254718269738,66.20210827491587
116.95445492056942,72.45986062416095,64.52086074827263,64.41284509897038
117.28780874767898,71.9879425065161,64.14235021092628,63.37061230733019
117.62116257478851,71.58424890499711,64.22114713833977,62.715098895835375
117.95451640189808,70.26636313599033,63.55397186054492,61.426468835555795
118.28787022900762,69.41630672805526,63.305684296166774,60.687940434665606
118.62122405611717,69.42717533129893,63.52766909462455,60.43254650361024
118.95457788322673,68.38870435325543,63.304060335900886,59.670431363577315
119.28793171033628,67.74985226100235,63.47806334501865,59.62827682477919
119.62128553744583,67.30867838051026,64.24911091321454,60.06998124660642
119.95463936455539,66.34129408473359,63.94752302398986,59.712296151690445
120.28799319166494,66.04951662632686,64.4816722769609,59.67541142009615
120.62134701877449,65.02764546653341,64.14207097434787,59.10319927115203
120.95470084588405,64.32946544721563,64.03943805288388,59.05311336543036
121.2880546729936,64.27787459711293,64.07206663865699,59.54273013315654
121.62140850010314,63.25286831362684,63.26437431879439,59.46970492892281
121.9547623272127,62.99196617003999,63.16997739559386,59.74191377935458
122.28811615432225,63.243724954248684,63.602364824791046,60.24810100550806
122.6214699814318,62.55124927216623,63.08166189665121,59.81268255184763
122.95482380854136,62.19447916065836,63.29768601529011,59.8966116503181
123.28817763565091,62.24825140339259,64.07001502303153,60.57805781604593
123.62153146276046,61.32685517200693,64.24070631293289,60.594369733074316
123.95488528987002,61.010878515343855,64.88191258358103,61.179893255066965
124.28823911697957,59.80491501357124,64.23686204536082,61.10937752089887
124.62159294408912,59.11688112311161,63.9872411489064,61.1737762097718
124.95494677119868,58.812285658479965,64.24145422791192,61.60440337780594
125.28830059830821,57.84489706188157,63.39894220380099,61.15886716046552
125.62165442541777,57.292624227581456,62.98403549304672,61.04313572131685
125.95500825252734,57.28267814395047,63.17844430666595,61.41811764019148
126.28836207963687,56.791852039324496,62.61839368576562,60.8698166994173
126.62171590674643,56.62067565334616,62.25977751689931,60.67853079552018
126.95506973385599,56.80076704807722,62.283938933374976,60.88533883179641
127.28842356096553,56.58033562773353,61.557772000744436,60.805877606064456
127.62177738807509,56.64860340106546,61.37640500881216,61.004732351011725
127.95513121518465,56.832799039769654,61.792457885393894,61.69010240425862
128.2884850422942,56.322351240364284,61.44693383567467,61.517112542362895
128.62183886940375,56.32914468501928,61.59728572715969,61.70106378070416
128.95519269651328,56.88343122599869,62.186729290308314,62.261139060045366
129.28854652362287,56.89578447189587,61.72490738542662,61.895221563764
129.6219003507324,57.323626069706705,61.645228710813285,61.85219439607042
129.95525417784194,58.05123753891576,62.065081923467815,62.374862130875414
130.28860800495153,58.10246684150031,61.94186461138295,62.20667631803672
130.62196183206106,58.197857830721176,62.005631007047015,62.68120942692419
130.9553156591706,58.43028122932658,62.44310345081276,63.917964153475125
131.28866948628018,57.951222046644574,62.03319965493361,64.54018664275274
131.62202331338972,57.94219465196634,62.22513495493476,65.93207151471384
131.95537714049925,58.540740191343104,62.95817443040215,67.72864673689989
132.28873096760884,58.53478228039952,62.69102943827822,68.29195705380513
132.62208479471838,58.753137117872164,62.96327211319567,69.09220578125517
132.9554386218279,59.38957782157841,63.74248094017458,70.55410610031467
133.2887924489375,59.11532090496328,63.721364083818344,71.26453718347847
133.62214627604703,59.282591913581705,64.20930000359996,72.2086766703763
133.95550010315657,59.77805661617099,64.85614476569336,73.2181073310397
134.28885393026616,59.70741555257162,64.79684372203778,73.2581144451164
134.6222077573757,59.775204745473275,65.2857411614713,73.57174224927596
134.95556158448522,60.33327714847606,66.33307479383085,74.15607442891496
135.28891541159481,60.25414383186157,66.76183584367166,73.98634339949275
135.62226923870435,60.80599404382661,67.5346645059452,74.39608319993802
135.95562306581388,60.6482059531614,67.22217354682121,73.80863638917535
136.28897689292344,61.17971370155443,67.2259927939244,73.75579728370242
136.622330720033,62.1408466466053,67.7643973983337,74.58678722749148
136.95568454714254,62.544870279150786,67.5993932702382,74.70930165017347
137.2890383742521,63.366621006158766,68.1753235893974,75.35513246135295
137.62239220136166,63.22500737288693,68.07454783213508,75.0327776708425
137.9557460284712,63.49700103393016,68.35220145750023,75.40625265148414
138.28909985558076,64.19717450393297,69.23937622651427,76.31635900137981
138.62245368269032,64.17358958268129,69.30751613334374,75.79233645691139
138.95580750979985,64.78234171204438,69.82724383453953,75.75872728427693
139.28916133690942,64.75372504589242,69.20304998452656,74.3381644716424
139.62251516401898,64.84748164169032,68.99465294530997,73.39757978410759
139.9558689911285,65.19769578269656,69.2886478568466,72.84348246207647
140.28922281823807,64.9180787033764,68.57921898324857,71.24465218976897
140.62257664534764,65.14939847304419,68.2691273680526,70.28559579244181
140.95593047245717,66.0151300146711,68.63612455318,70.0491993849956
141.28928429956673,66.19967491738147,68.10813212293175,69.06053643136478
141.6226381266763,66.95476703128764,68.20348558284327,68.6183640352467
141.95599195378583,68.09923007891986,68.83620587358021,68.62561735447304
142.2893457808954,68.30571298469822,68.6365560977298,67.93556408843932
142.62269960800495,69.3103228296585,68.87443235455777,67.52004723771805
142.95605343511448,69.91501301560302,68.29735303182588,66.2426911983773
143.28940726222405,70.81938536370156,68.6994963260297,65.76763963540927
143.6227610893336,71.82503569866608,69.71431050399231,65.84842079075847
143.95611491644314,71.7127302702298,69.72557667675575,65.70765801437037
144.2894687435527,72.1811943621456,69.96924893700887,66.2857901898982
144.62282257066227,71.91538094056332,69.25935261834442,66.18620410501296
144.9561763977718,72.05459105551034,69.2799784275488,66.56668591800408
145.28953022488136,72.8258025924994,69.69977943969738,67.64101213976902
145.62288405199092,72.77629891647327,69.38856728344564,67.82231567332097
145.95623787910046,73.31869830409823,69.60029922748828,68.49859896894326
146.28959170621002,74.5380600128397,70.56787677819128,69.48391189625147
146.62294553331958,75.01651003267813,70.67879891488026,69.7421482012406
146.9562993604291,76.17122469804872,71.05742839782869,70.81795514569899
147.28965318753868,75.9761871642362,70.70943871869059,71.07557326772317
147.62300701464824,76.55164867602994,70.76506161117601,71.66856430743164
147.95636084175777,77.75375849027334,70.89568872642944,72.64361222874778
148.28971466886733,77.93692755574808,70.19888013197404,72.75428048682903
148.6230684959769,78.47403872034863,70.16819824478198,73.40783516606942
148.95642232308643,78.28787829257497,69.71063216873131,72.7886240867494
149.289776150196,78.57030586196116,70.24712052158499,72.69718378931223
149.62312997730555,79.32727255817593,71.22592820588781,73.373028140625
149.9564838044151,79.0361800899426,71.31763638890402,73.1204924130443
150.28983763152465,79.14494352377761,71.92585920846133,73.27358417531113
150.6231914586342,78.27361741130449,71.92759522048985,72.73166568456817
150.95654528574374,78.38897647406021,72.49999792992767,72.66611787522157
151.28989911285328,79.30853829490509,73.76694231150267,72.97170241510685
151.62325293996287,79.06912570832417,73.97547229988267,72.74861837847087
151.9566067670724,79.5194253437185,74.51451610585273,72.75367501276324
152.28996059418193,79.13129902283667,74.25501975342165,71.89797343828951
152.62331442129152,79.8642972124735,74.63808958632261,71.53919564680601
152.95666824840106,81.04489928754964,75.72740140904638,71.88940471738867
153.2900220755106,81.1154624309414,75.94884559055554,71.37729240527307
153.62337590262018,81.60451084302996,76.70951475073278,71.29059387708202
153.95672972972972,80.96468613318888,76.25141027077785,70.18095718120242
154.29008355683925,80.90317370568962,76.37325728748226,69.80384730745581
154.62343738394884,81.54214547338756,77.23886304063593,69.77697545268866
154.95679121105837,81.10964791286341,77.25353678450402,69.03863794746324
155.2901450381679,80.86813173876823,77.87166479994222,69.04486516911777
155.6234988652775,80.22423539753655,77.53049282872612,68.23493737219333
155.95685269238703,80.335516334167,77.72062382399837,67.8549125167771
156.29020651949656,80.88960449144048,78.47543873701326,67.93022650387384
156.62356034660615,80.19012008433802,78.60406783510125,67.25266810482844
156.9569141737157,80.16165989221803,79.44423960019589,66.8635424531909
157.29026800082522,79.30690020850807,79.20026975197518,65.72400996970606
157.6236218279348,78.9213269483146,79.71769392028403,65.53875722589014
157.95697565504435,79.3003680598022,80.82970805918693,65.95867073026136
158.29032948215388,78.59183312810688,80.93700744678033,65.61961793164001
158.62368330926347,78.53611039860469,81.64735712494827,65.49276492413202
158.957037136373,77.28781685457432,81.24962160038895,65.05063288658324
159.29039096348254,76.75308890435396,81.3813425495043,65.30758550155025
159.62374479059213,76.99051534870384,82.39600704814453,66.19758622400433
159.95709861770166,76.6056961640009,82.34105213252005,66.47616808481551
160.2904524448112,77.10306374641024,82.94703872210431,67.26869886383402
160.62380627192078,76.45305551882726,83.11618628828835,67.22650159661096
160.95716009903032,76.21572137659821,84.00878560966798,67.56528516476456
161.29051392613985,75.10967502040165,83.55525938102252,66.96526051664472
161.62386775324944,74.55672765277714,83.56772654518166,66.77492105871232
161.95722158035898,74.89592318002691,84.15765995389138,67.19491668326081
162.2905754074685,74.4358254503613,83.93819660796217,67.1159365167862
162.6239292345781,74.88910006429458,84.49505919746989,67.67551438503162
162.95728306168763,74.5055253188059,84.0932322204627,67.5445764280666
163.29063688879717,74.54488355150949,84.42656925144728,67.50327096838228
163.62399071590676,73.68467655258027,83.49287871526091,66.57802609205028
163.9573445430163,73.46224913400347,83.36745237617438,66.14343101204263
164.29069837012582,73.663459679727,83.87943233447865,66.26010946156732
164.62405219723541,72.75275328364403,83.32591765971299,65.72466994984921
164.95740602434495,72.56845799835727,83.5532585794607,65.87059179560671
165.29075985145448,71.69416767871051,82.90980498344855,65.6112521896122
165.62411367856404,71.60462729423006,82.91306216508045,66.09428671471684
165.9574675056736,72.13580098780395,83.91312742849263,67.14173828644793
166.29082133278314,71.65861777875647,83.78695044902375,67.57028824512638
166.6241751598927,71.61212895219533,84.03065649715143,68.78180390235174
166.95752898700226,70.75712168538635,83.43773202515555,69.08932765461503
167.2908828141118,70.5790205449045,83.43091855787999,70.06929298463767
167.62423664122136,71.03653050258167,84.35523495570575,71.50663069170373
167.95759046833092,70.67005884525247,84.10057686290467,71.94098832943011
168.29094429544045,71.36118889110156,84.83658031262142,73.06780212582501
168.62429812255002,71.58974797731356,84.61511830295196,73.05423602615075
168.95765194965958,72.81360048382011,85.12888372417827,73.49931530175554
169.2910057767691,73.2125008358313,84.45691725429191,73.33332064253305
169.62435960387867,74.03477762542623,84.65428214546827,74.1199273800779
169.95771343098824,75.19071207181726,85.34178408902773,75.17862626603753
170.29106725809777,75.31394405098085,84.3675871015868,75.3177163624376
170.62442108520733,75.94921805830006,83.92378572729316,75.79469922658608
170.9577749123169,75.91288072802034,82.94346043661528,75.29603505194078
171.29112873942643,76.68513454433956,82.23318179492001,75.4460639661063
171.624482566536,78.03706132264344,82.47584382639049,76.47643445203089
171.95783639364555,78.31939089693716,81.90592589402948,76.7071388806586
172.29119022075508,79.1482391799729,81.68026508101124,77.35847585160974
172.62454404786465,79.01858027232728,80.62283326183172,77.21420400019886
172.9578978749742,79.58341639347549,80.1733953038086,77.78861870908936
173.29125170208374,79.31156179028318,79.20598907580168,77.72048487269564
173.6246055291933,79.94818540827602,79.2852031084889,77.93531084024593
173.95795935630287,79.94623977725905,78.59893329075541,77.38166901324217
174.2913131834124,80.59404896852061,78.66693996634055,77.6354630403333
174.62466701052196,79.8975936083295,77.86943240212527,77.15314066326953
174.95802083763152,79.86956842864208,77.5434818373221,77.61571007879427
175.29137466474106,80.64805559548493,78.01670161054214,79.0878273804913
175.62472849185062,80.67887711485203,77.60924643894755,79.45362149278016
175.95808231896018,81.11297444612823,78.06685779170353,80.16389466776911
176.2914361460697,80.75967682012612,77.6679023004157,79.72187716618296
176.62478997317928,80.95637994655101,77.54876058493637,79.86024883212438
176.95814380028884,80.25766474399086,76.56106542702756,79.36689305605243
177.29149762739837,80.21148124114542,75.77566638941202,79.08786227373685
177.62485145450793,80.71367875226306,75.86266229170938,79.73995962901239
177.9582052816175,80.01685065965813,75.04439770637327,79.05705906463425
178.29155910872703,80.18275397191859,75.11702987346244,78.91734602254097
178.6249129358366,79.08127392625664,74.01041348826087,77.69794328646641
178.95826676294615,78.86622416109492,73.52896620275465,77.34408202950794
179.2916205900557,79.40963969991064,74.09929741171676,78.44482971009056
179.62497441716525,78.86602861900879,73.861070943114,78.85347259624933
179.9583282442748,78.9601308887547,74.03369218976214,79.61688651975606
180.29168207138434,78.18670907887187,72.9595474766937,79.30601943245716
180.6250358984939,77.80180282793427,72.65962889202663,79.77408193121737
180.95838972560347,76.7873023444659,71.46839288959885,79.14570180986277
181.291743552713,76.71341745827117,71.01919791521925,78.48764946410769
181.62509737982253,77.25498658187102,71.17256664204523,78.43555519051844
181.95845120693212,76.80972990436159,70.42423120681153,77.42164755008993
182.29180503404166,77.39596253294448,70.5464507935389,77.57588811881502
182.6251588611512,77.23208397175648,70.1512255056601,76.83332307277817
182.95851268826078,77.76689838960237,70.18524612795731,76.61934651461158
183.29186651537032,78.58179993104977,70.63684133605037,76.84288756624589
183.62522034247985,78.77689391225276,70.03947864889447,76.0532977390972
183.95857416958944,79.36764381122569,70.21923343689717,75.97100928638713
184.29192799669897,79.35263733439255,69.70775910901587,75.21479679188153
184.6252818238085,79.71393850633808,69.78561742486689,75.33510564251972
184.9586356509181,80.6735045167392,70.48359848007267,76.16449866270044
185.29198947802763,80.68915927748557,70.26789829977616,76.22019280912345
185.62534330513716,81.56638633565952,70.36461188489793,77.14082010916634
185.95869713224675,81.56764233368108,69.6794758391878,77.38344481961892
186.2920509593563,81.78437578670066,69.63485557937493,77.92841327795043
186.62540478646582,81.21594428263131,68.64040389168227,77.85976017341767
186.9587586135754,81.22195813649739,68.31362373534633,78.5329332039876
187.29211244068495,80.56824975980501,67.53179622099822,78.21932530488766
187.62546626779448,80.24049100612002,67.35402036404246,78.40766182512199
187.95882009490407,80.74743321554092,67.67761765654117,78.93765040759438
188.2921739220136,80.34371028654212,67.22646433090239,78.96247388734866
188.62552774912314,80.22472777161288,67.37733167116001,79.60704086478069
188.95888157623273,79.72961541162886,66.5923710515117,78.70231515058538
189.29223540334226,79.84660008684011,66.20844635136363,78.37988089085066
189.6255892304518,78.92104945514296,65.0193734455013,77.33028033489465
189.95894305756138,78.67849960741216,64.71522474890816,76.8224419273355
190.29229688467092,79.39290173681245,65.07830380922577,76.39836412991407
190.62565071178045,79.31906041424088,64.53059010280714,74.95437115188818
190.95900453889004,80.0451388262636,64.60527571071994,73.93972582820157
191.29235836599958,79.75183138580233,63.9158765716564,71.96461901387913
191.6257121931091,79.53843193912395,63.425015953878024,70.68029549840189
191.9590660202187,80.053041833905,63.50188998945617,70.12549185608016
192.29241984732823,79.8388890074158,62.80868356055962,68.92343312339521
192.62577367443777,80.03037629134593,62.630549302456814,68.44791033076021
192.95912750154736,78.80814794510178,61.99266145287108,67.30263268979814
193.2924813286569,77.97323703047444,61.78557538156689,66.65510123279587
193.62583515576642,77.70913796641614,61.867643573645054,66.65112077077029
193.95918898287601,76.36753012620768,61.25936743735529,65.63450024265653
194.29254280998555,75.61095095087248,61.16571981465805,65.34642528912707
194.62589663709508,75.25251672557293,61.81330100105698,65.38676710161945
194.95925046420467,73.77613858017847,61.6762221561496,65.17279516949885
195.2926042913142,72.96169713520732,62.13054561822943,65.77705054467903
195.62595811842374,71.55581718941282,62.01124224270852,65.46958084644028
195.9593119455333,70.73663177313328,62.360431476862566,65.62178055839763
196.29266577264286,70.67231778822156,62.95120346425871,66.37419763402767
196.6260195997524,69.87963218019561,62.37981602683114,66.47273345124442
196.95937342686196,69.6426600001355,62.070354369190255,67.14179795185953
197.29272725397152,69.88756405851882,62.142928219815936,68.25663945204788
197.62608108108105,69.0369684650775,61.217472270317394,68.60240248229054
197.95943490819062,68.55822112468292,60.66278116214177,69.2351443748632
198.29278873530018,67.38119330481653,59.4480905926671,68.69662209694219
198.6261425624097,66.83208294468957,58.985579170258525,68.46936655251005
198.95949638951927,66.9560054657641,59.021346562657065,68.78859536032341
199.29285021662884,66.31839773614765,58.38568662715231,68.16133216980401
199.62620404373837,66.01779896166194,58.202930183962835,67.67438140207068
199.95955787084793,66.33040041641537,58.43083312427485,67.82091844452735
200.2929116979575,65.98283654174159,57.95527375893711,67.35300062233324
200.62626552506703,66.03248831375409,57.813724443721014,67.43449205389231
200.9596193521766,65.29853977498522,57.190308669092374,66.77961247724821
201.29297317928615,64.95516068852606,57.02851936788962,66.97367360760192
201.62632700639568,65.16507586660332,57.28486658054402,67.7703595239108
201.95968083350525,64.40395326480218,56.66116284882141,68.05349035821236
202.2930346606148,64.21102690265396,56.44491924939457,68.47588351303023
202.62638848772434,64.65536971844296,56.70062998330347,69.31049900552779
202.9597423148339,64.22022558202313,56.23262443260754,69.28887624519709
203.29309614194347,64.44593357669059,56.31063779984297,69.56412877467211
203.626449969053,63.90567451960732,55.73368775134861,68.90679993469071
203.95980379616256,64.00568150151148,55.71417070897867,68.9570712924284
204.29315762327212,64.7930916854671,56.192837800745764,69.39834826300502
204.62651145038166,64.68230969647452,56.03819010454629,68.85907750551245
204.95986527749122,64.89253627026291,56.1244764777142,68.7866993351702
205.29321910460078,65.5978767939067,56.98846007945207,69.25706234483864
205.6265729317103,65.38334044313284,57.20566848219263,68.71896812844729
205.95992675881988,65.2771593705803,57.887241516098996,68.28145658049034
206.29328058592944,65.81745369744543,58.86866789468131,67.98823205525697
206.62663441303897,65.66751660470857,58.7767057173442,66.94253908649794
206.95998824014853,65.92720515835124,59.14428860363876,66.7093962880914
207.2933420672581,66.55157339671086,59.876572875453995,67.01656522932834
207.62669589436763,66.4159797664901,59.70964747839842,66.36123246899785
207.9600497214772,66.61787300265335,60.241348213012216,65.9812812504216
208.29340354858675,67.41815330558535,61.16142346730059,65.92227260997998
208.6267573756963,67.06264929181964,61.15084199929447,64.90543460468369
208.96011120280585,67.35417445793742,61.46253004884679,64.10403779181354
209.2934650299154,67.78311604566785,62.25445182224566,63.885925563844864
209.62681885702494,67.35094460242831,62.15207343233742,62.81063840270884
209.9601726841345,67.45307354733885,62.47171832185252,62.21710470448165
210.29352651124407,68.31180495347455,63.337363185737324,62.221252438662695
210.6268803383536,68.31024155419718,63.330080731432716,61.66474043843674
210.96023416546313,68.80139329852993,63.78285473615946,61.74212970222965
211.29358799257272,68.40188678927755,63.53865124054096,61.2857173610783
211.62694181968226,68.52934903103754,63.754209097841866,61.19375631349107
211.9602956467918,68.7963506510282,64.17811516484637,61.65970292986848
212.29364947390138,68.10747777692826,63.52301823607449,61.61298517289856
212.62700330101092,67.75535688133563,63.56919084589659,62.10578815801922
212.96035712812045,67.86588661981604,64.29948368359506,62.90569445145148
213.29371095523004,67.19880167854046,63.86440638905669,62.75097420587198
213.62706478233957,66.93095838710458,63.68110443099003,62.891862748451224
213.9604186094491,66.87573983960733,63.95391982519521,63.49740180869121
214.2937724365587,65.99984201220254,63.49085244093742,63.25754580385577
214.62712626366823,65.78276216612664,63.59924577465545,63.345723661958715
214.96048009077776,65.91889467373802,63.91914599755334,63.523717197800075
215.29383391788735,65.11354806042966,63.46569454396241,63.02609733972764
215.6271877449969,64.59705485590865,63.5815985335856,63.09638153810414
215.96054157210642,64.54906067956931,64.026720269735,63.86052738399159
216.293895399216,63.724158366538795,63.45184709344571,63.83931573741388
216.62724922632555,63.60858001287849,63.481695705792276,64.23105418274427
216.96060305343508,64.00532956301521,64.37734241525531,64.89906697807272
217.29395688054467,63.85853726736455,64.52133769688992,64.6115629467176
217.6273107076542,64.0235000239788,65.15424936728081,64.6632366123586
217.96066453476374,64.62438423218784,66.51345445922755,65.13823742732087
218.29401836187333,64.40192284922058,67.0578276037706,64.71948137241819
218.62737218898286,64.87598283876478,68.10992293165792,64.70987627984692
218.9607260160924,64.50424460384978,68.21244138054927,64.26042643104591
219.29407984320198,64.66148485300783,68.58621640371096,64.35618685476268
219.62743367031152,64.03423929597466,67.9944347796833,63.54903831353524
219.96078749742105,64.16472520266177,68.05292403243452,62.90559109713089
220.29414132453064,65.0644930639235,68.61799060561647,62.835900831617316
220.62749515164018,65.50222777587129,68.33012189986286,62.00002543849624
220.9608489787497,66.55900982629085,68.29386510962568,61.85113401041008
221.2942028058593,66.20933359208156,67.47175838226941,60.87300071671925
221.62755663296883,66.21934729307333,67.28474106857591,60.41210997632151
221.96091046007837,66.4797072420791,67.70194293947856,60.25193334190938
222.29426428718796,65.86544259795157,67.17420817783393,59.6090693953112
222.6276181142975,65.85803437089619,67.02082043837524,59.64188706920088
222.96097194140702,66.74817870509344,67.55723400485604,60.072252119950804
223.29432576851661,66.44621425212236,67.48514263975638,59.84456026349139
223.62767959562615,66.28586067006911,67.91317491020234,60.110662449426634
223.96103342273568,66.52552331405364,68.74852101338439,60.81469123920127
224.29438724984527,65.9768551350788,68.33747414201507,60.4344859283355
224.6277410769548,66.06232752164124,68.50310013326943,60.371553082333406
224.96109490406434,66.69071040121364,69.31454884147799,60.72582150853959
225.2944487311739,66.39336786478836,69.08619047937329,60.22136803140765
225.62780255828346,66.12368666664577,69.28326126183431,60.03712187771631
225.961156385393,66.05219817778394,70.00381915258069,60.11547237678896
226.29451021250256,65.22058065907552,69.88395169503441,59.35386455961458
226.62786403961212,64.9485090251599,70.03666383803946,58.75216138526843
226.96121786672165,65.05727701310298,70.59563314602306,58.70024986212019
227.29457169383122,64.557704011759,70.09626284912622,58.217940345408344
227.62792552094078,64.86878870649107,70.12260270946096,58.29460420172672
227.9612793480503,66.01048212772345,70.87817773551116,58.84565299140554
228.29463317515987,66.36897374852077,70.87154520961482,58.63603423935574
228.62798700226944,67.16912275443872,71.44768202532593,58.97342165620822
228.96134082937897,68.53840469145305,73.06365863913703,59.945774336605915
229.29469465648853,68.87598266811064,73.5761542895198,60.137198401002806
229.6280484835981,69.78825003703639,74.65859414543363,60.948089614693096
229.96140231070763,69.83999907946104,74.66428388841551,61.292987191770656
230.2947561378172,70.17192121100365,75.28691635664468,61.9928149098843
230.62810996492675,69.77244714702935,74.95244673642917,62.131544503314345
230.96146379203628,69.97793207411154,75.16092150545245,62.5753523488833
231.29481761914585,70.63753592860036,76.1185371079761,63.46839062372161
231.6281714462554,70.62815036658891,76.01042043276709,63.4260098795548
231.96152527336494,71.20900453815752,76.28492483185963,63.797360424622525
232.2948791004745,71.06308472580935,75.40830837389217,63.11376889498196
232.62823292758407,71.41073313851042,75.09213227451644,62.8894049736101
232.9615867546936,70.74303746016311,73.85836825885723,61.98241113081983
233.29494058180316,70.48196801992049,73.32652232922361,61.63524342634909
233.62829440891272,70.52033022356981,73.69291217081657,61.583910138055835
233.96164823602226,69.96801813717153,73.04992347394779,60.61806249894221
234.29500206313182,69.92066994984388,72.77253996830927,59.99357696985653
234.62835589024138,70.32802713040726,72.99991539532314,59.77520672708887
234.9617097173509,69.82530216451305,72.36388705426904,59.056298600985556
235.29506354446048,69.92992236104975,72.22046306375891,58.73039194049593
235.62841737157004,70.94589820540318,72.52569813936196,58.699901164204555
235.96177119867957,71.20228892597441,71.8744608310458,58.17083367869444
236.29512502578913,72.10221591911562,72.14629440664186,58.068369463575635
236.6284788528987,72.2169912865399,71.72772631195505,57.21036925909679
236.96183268000823,72.94863480600131,71.70585504291927,56.72644793211751
237.2951865071178,73.96846688565066,72.38927141953772,56.66829080304844
237.62854033422735,73.83309426974694,71.89611553253854,55.90279970832471
237.9618941613369,74.00891051665985,71.90169666130399,55.41827310041389
238.29524798844645,74.70958977020182,72.45049686642069,55.50377564019018
238.628601815556,74.54093257191366,72.24835372585368,55.05178335775042
238.96195564266554,74.79531097709749,72.690461623748,55.23818587030929
239.2953094697751,74.0597035414593,71.98242514875746,54.745980618509854
239.62866329688467,73.96472195751667,71.73375470953928,54.49781957495557
239.9620171239942,74.7540164080263,72.05114682639889,54.60382046908633
240.29537095110373,74.61125882400378,71.31773769625794,54.18822544222667
240.62872477821332,74.93880814752417,70.67519471544759,54.3297421948529
240.96207860532286,75.59910059925085,70.3146287788344,55.02178542050133
241.2954324324324,75.12409592118827,68.99210419048583,55.00899113589338
241.62878625954198,74.97159158658339,68.1336740572478,55.39019304796936
241.96214008665152,74.1494187185295,66.77086097484529,55.299499408426726
242.29549391376105,73.84624331496023,65.70595039658839,55.77934848177825
242.62884774087064,74.21082225914837,65.10000619232271,56.462470189762946
242.96220156798017,73.58119120807628,63.718060480292095,56.39027587331112
243.2955553950897,73.28412814761504,62.952504958202915,56.7297358416276
243.6289092221993,73.28892902196772,62.6492413995316,57.286601069425195
243.96226304930883,72.57280018739372,61.37590469475067,57.56488251484398
244.29561687641836,72.24580749537468,60.75907539200078,58.30679562827342
244.62897070352795,72.45258211804072,60.8179727289929,59.432309918946785
244.9623245306375,71.78816799913781,60.40872750435999,59.796994317306414
245.29567835774702,71.9438843750204,60.848820422136825,60.910959336007416
245.6290321848566,70.97046087962391,60.72642459329926,61.398617251018145
245.96238601196615,70.4754847138461,60.92017600735724,62.08276149676423
246.29573983907568,70.76909510165986,61.71102907895698,63.264217729788946
246.62909366618527,70.30107990728654,61.56164910060338,63.5699680640391
246.9624474932948,69.97947274268947,61.83162261771673,64.37584813931788
247.29580132040434,70.16606101250505,62.38319206356625,65.54251568330962
247.62915514751393,69.66834843432872,62.27177821335129,65.58823143601678
247.96250897462346,69.74307024728662,62.724282977413765,66.14064892325553
248.295862801733,68.92753342842164,62.379615936971106,65.79723308336057
248.62921662884258,69.11236752394737,62.580306173870184,65.8522776185898
248.96257045595212,69.87139805976564,63.225460149955296,66.32699796714927
249.29592428306165,70.03409408979283,62.904416580833896,66.09932152921054
249.62927811017124,70.3394865145513,63.12085134138186,66.26099927632994
249.96263193728078,69.49299310635298,62.68354598109863,65.5561551942104
250.2959857643903,69.06683822921632,62.702620473165126,65.04854558989106
250.6293395914999,69.1723253560331,63.53925177823867,65.23885788722798
250.96269341860943,68.4237289560244,63.558459738255124,64.82135675997714
251.29604724571897,68.0359862494133,64.32284932034412,64.79179933711433
251.62940107282856,68.3848900645374,65.81574158940191,65.11845530215017
251.9627548999381,68.16302755534882,66.43339876433451,64.92632838859421
252.29610872704762,68.43001982100664,67.639344653445,65.32948872407306
252.62946255415721,67.73828146359159,67.85867320415002,64.82860859287324
252.96281638126675,67.47563791622976,68.42200932088306,64.71302838123188
253.29617020837628,67.7931825787555,69.230133231209,64.96814848117062
253.62952403548587,67.32269944890888,69.12580158489607,64.4461474756287
253.9628778625954,67.46056442123185,69.82893415601637,64.13305816992904
254.29623168970494,68.3352108321606,71.00549316779022,64.11586063476437
254.62958551681453,67.99723349032196,71.0965508477623,63.15992746920651
254.96293934392406,67.79837321823365,72.17319247438883,62.671852604678634
255.2962931710336,66.98334237478285,72.02815944846051,61.56468798940533
255.62964699814316,66.91319450709652,72.328299835486,61.177046835595576
255.96300082525272,67.29576107455188,73.26918150573835,61.32180945505806
256.2963546523623,67.01322842541211,73.07492070335839,60.57057556916124
256.6297084794718,67.4895045029006,73.38579662265732,60.32506458719935
256.9630623065814,68.389839611262,74.04219874655271,60.616417596311116
257.29641613369097,68.44248339969897,73.6315170375767,60.35655789370149
257.62976996080045,68.96254411714412,73.74579681445552,60.489754879569794
257.96312378791004,69.77940431387873,74.50014191721894,60.9430646319955
258.2964776150196,69.68114032672578,74.08266478636071,60.68902337121695
258.6298314421291,70.19958375017221,74.24291765029743,60.654964603199474
258.9631852692387,69.60440826882227,73.40908245090908,59.84385690209557
259.2965390963483,69.39865625878771,73.12224661539786,59.52640912170045
259.62989292345776,69.46942379119871,73.29121350328732,59.90820342648643
259.96324675056735,68.87668470392917,72.76566994939276,59.905369349467904
260.29660057767694,68.59657748811262,72.88186541578878,60.45705228301702
260.6299544047864,67.66491909634905,72.01801108740386,60.46801706349327
260.963308231896,67.42894457674223,71.57560890491558,61.18312882374359
261.2966620590056,67.86521374636425,71.63970260346585,62.480722924650856
261.6300158861151,67.60856212761092,70.65209300599288,62.878622279251665
261.96336971322467,67.84419638883429,70.54264284343316,63.860510816312384
262.29672354033426,68.33781826052152,70.98527472467615,65.11255791127337
262.63007736744373,68.05011955606581,70.72881940195282,65.7158296231172
262.9634311945533,68.19267043599055,70.51354837008441,66.64930895531099
263.29678502166286,67.58963928769086,69.09177490603318,66.74744774794446
263.6301388487724,67.45809701926308,68.20692545178946,66.86211671708438
263.963492675882,67.94594962302551,67.89421213868343,67.1129355818297
264.2968465029915,67.29855476632838,66.82722214855792,66.65963456773387
264.63020033010105,67.11125898957658,66.8225732780689,66.65742989722173
264.96355415721064,65.89102595288223,66.4067718594788,66.03349044806822
265.29690798432017,65.11688863553742,66.48431266547146,65.62324779090467
265.6302618114297,64.91987528108231,67.11588946143681,65.76666463372867
265.9636156385393,64.03250235030795,66.61368829522301,65.245936481922
266.29696946564883,63.61796719609882,66.64249342557054,65.25975135943357
266.63032329275836,63.49477110171657,66.85630608604339,66.0354021752203
266.96367711986795,62.44028107756598,66.18451843390325,66.01432429113726
267.2970309469775,62.149935998773714,66.25645832579981,66.50780314241128
267.630384774087,62.374400380509194,66.99001808600187,67.32342916047088
267.9637386011966,61.548392410531136,66.86002598270143,67.27544181708231
268.29709242830614,61.27404868297839,67.11543013084068,67.79107508047485
268.6304462554157,61.37232096684855,67.55500271076808,68.5500360190349
268.96380008252527,60.62378180425426,67.1507274851564,68.36441405950993
269.2971539096348,60.24627985733304,67.28221581706427,68.76500084719564
269.63050773674433,60.55497381087844,68.09719131624877,69.63427706394069
269.9638615638539,60.44761568445635,68.40360930578339,69.82846284461561
270.29721539096346,61.129673996016535,69.0884147630055,70.32633852608157
270.630569218073,62.45120227336039,70.0872215576263,70.99860776638096
270.9639230451826,63.03925460536445,70.56983759803134,70.79009548172343
271.2972768722921,64.09335627936684,71.2817454884628,70.80076169504535
271.63063069940165,64.49486954493436,70.89212075617998,69.93570355098305
271.96398452651124,65.62311453850698,71.04331792412096,69.4597627966234
272.2973383536208,67.00092418910687,71.81278192164925,69.48060764351459
272.6306921807303,67.54325047177511,71.85626026320935,68.725041450664
272.9640460078399,68.31530874488473,72.42337194504529,68.6251405867983
273.29739983494943,68.34114049634533,72.05156823521388,67.94584692006643
273.63075366205896,69.02045515858275,72.22163282909996,67.98920487180946
273.96410748916855,70.31151574133672,72.85213365048104,68.53570019268115
274.2974613162781,70.56783593864465,72.44222606441863,68.48916935878647
274.6308151433876,71.29464338392853,73.0379430127814,68.51371159876192
274.9641689704972,71.1437095140012,72.8232836404466,67.81323430434931
275.29752279760675,71.4849760675795,73.13192047504499,67.73720732496344
275.6308766247163,72.21526993175023,73.99510383341486,68.18592438913804
275.96423045182587,71.94581800050915,74.20913047130627,67.93955538382777
276.2975842789354,72.37770642930963,74.65863787567763,68.00538968313103
276.63093810604494,72.03959770141813,73.88563541719168,67.2083748415236
276.9642919331545,72.1421426743308,73.32003607292575,66.85506265789213
277.29764576026406,72.52747105924801,73.05717999902465,66.900439433262
277.6309995873736,72.37003247188662,71.9307407872278,66.31082689725012
277.9643534144832,72.67296885684736,71.78441834636973,65.89236990542287
278.2977072415927,72.03161398779893,70.6543819303972,65.03210137417527
278.63106106870225,71.85292200207785,70.2304602326555,64.69742990264584
278.96441489581184,72.25320923275046,70.46920094445419,64.8780666554833
279.2977687229214,71.57903071038304,69.93030730714993,64.10207482700119
279.6311225500309,71.12165438440005,69.91825034557768,63.80248811359208
279.9644763771405,71.17243952883257,70.80317694776522,64.06416052080414
280.29783020425003,70.43658291891083,71.14012683911488,63.69497971377828
280.63118403135957,70.52573926001635,72.16073586892517,63.72979169893703
280.96453785846916,69.86199250996513,72.00636329112429,63.15128293081514
281.2978916855787,70.22818824042456,72.43769198346537,63.3229430382852
281.6312455126882,71.0834212210091,73.1965477888808,63.921502488528866
281.9645993397978,71.41726205129831,72.75073894618788,63.419435422620055
282.29795316690735,72.1402152518169,72.70626254789181,63.22833338474629
282.6313069940169,73.01502764903373,72.81941115232954,63.34565488954051
282.9646608211265,72.84298969529378,72.38476615229192,62.8646250832532
283.298014648236,73.31072113190025,72.44829676769129,63.08919445791305
283.63136847534554,72.87411943880608,71.29498129414299,62.51880007111546
283.96472230245513,72.82954656878506,70.65805924514277,62.51033111699827
284.29807612956466,73.48395603351442,70.7245904377298,63.080020400746925
284.6314299566742,73.08789205978077,70.18032156450543,63.005283250232836
284.9647837837838,73.25836271509101,70.06013700333473,63.56295398199177
285.2981376108933,73.8164500962085,70.5568186716695,64.39249813108668
285.63149143800285,73.22196279086276,69.91988306243563,64.48119088505847
285.96484526511244,73.23323806469476,70.00739676853671,64.78011090663166
286.298199092222,73.99911948247477,70.72778421938875,65.4325292744095
286.6315529193315,73.79836463823779,70.19078617452496,65.22139948228548
286.9649067464411,74.03256967547439,70.1921075202836,65.28865203363499
287.29826057355064,73.57927963249398,69.51037063455969,64.79519283904229
287.63161440066017,73.58626314714296,69.28708934239917,64.91007911340701
287.96496822776976,74.10720462940931,69.67002269857878,65.6331054799256
288.2983220548793,73.7174495135207,69.41135582203904,65.64033856528393
288.6316758819888,73.90872617108127,69.7044604980151,66.01438541807809
288.9650297090984,74.699456632075,70.67198148465484,66.94853207128438
289.29838353620795,74.60943393140069,70.71699329332604,67.12401651021669
289.6317373633175,75.10354249638333,71.4756882877834,67.39676081012117
289.9650911904271,74.57808884140726,71.35997916354756,66.93883010155145
290.2984450175366,74.55719641403086,71.50156479333445,66.95616352943644
290.63179884464614,75.1657130512735,71.97685860582764,67.42592801998585
290.96515267175573,74.82165693008592,71.57493092444612,67.15573037551472
291.29850649886527,74.92263490439275,71.87417463189286,67.29876072758513
291.6318603259748,75.2982214317679,72.1173743000211,67.73151681074843
291.9652141530844,74.85657171369435,71.65002285842513,67.60520585052919
292.29856798019387,75.03416407086489,71.74852044446098,67.81739273526931
292.63192180730346,73.74411054623096,71.10165320833386,67.45870274842635
292.96527563441305,72.97514965188135,71.1022815316174,67.35440551679733
293.2986294615225,72.64225799609346,71.48566955942906,67.64815045963726
293.6319832886321,71.394006666799,71.0918859194387,67.18597121331447
293.9653371157417,70.82727172376342,71.32617563318533,67.31562418135535
294.2986909428512,70.90970743409173,71.89947154058787,67.96649670524249
294.63204476996077,70.07098398007321,71.49940694279238,67.77106655460314
294.96539859707036,69.58414730367402,71.61433266892797,68.4174490182987
295.29875242417984,68.6402122214636,70.44572560407732,68.21687560698408
295.63210625128943,67.98032467708313,69.58748870375265,68.56939346227675
295.965460078399,68.10008106803805,69.21404790500613,69.42158734420298
296.2988139055085,67.46130020849643,68.08014195912111,69.38784475094221
296.6321677326181,67.39446607306775,67.56659437797562,69.79242520588438
296.9655215597277,67.93148348680477,67.77908938612325,70.6932346190551
297.29887538683715,67.59765150559205,67.39514655252039,70.82470258961933
297.63222921394674,67.73134889455545,67.53193352401854,71.60664104658065
297.96558304105633,68.2537598759002,67.82666398030037,72.79974119789723
298.2989368681658,67.80164838986835,67.38882862673007,73.04530828518084
298.6322906952754,67.86352506009818,67.49905595315178,73.68693833820414
298.965644522385,68.32747708056614,68.2653292643688,74.54183959657777
299.29899834949447,68.1052846985433,68.16700030601264,74.30548977782122
299.63235217660406,68.52895266747967,68.43661136727906,74.72640530418138
299.96570600371365,68.20284892080947,68.09080205859313,74.29601405723285
300.2990598308231,68.24711116721603,68.3968914555768,74.49343685764794
300.6324136579327,68.68274373010557,69.26693992968217,74.79148671732675
300.9657674850423,68.01895766760096,69.53448745616807,73.92650623568481
301.2991213121518,67.91437909386767,70.23409216168086,73.74558092959884
301.6324751392614,68.40166019825482,71.45013907940849,74.05187773263253
301.96582896637096,68.27879565883912,71.83995200070807,73.63297167300064
302.29918279348044,68.71404113857444,72.84324312385215,74.00140273111407
302.63253662059003,68.52100388314236,72.87429148853967,73.43333437753738
302.9658904476996,68.90840062825393,73.25368286213222,73.49016175576124
303.2992442748091,69.88452649043262,73.59150857444986,74.15928975244523
303.6325981019187,69.82677979905067,72.8226416414803,73.75431266652744
303.9659519290283,70.11359756059277,72.59864066330101,73.67048925410558
304.29930575613776,69.55889030062644,71.54823240604591,72.58315192380151
304.63265958324735,69.32130522781222,71.06487291208268,72.07169555247873
304.96601341035694,69.61104488291171,70.79570230645416,72.06588069449477
305.2993672374664,69.18268385392359,69.81810527072422,70.92912855126913
305.632721064576,69.49626093087613,69.40665307524571,70.26839168512322
305.9660748916856,70.51024389156863,69.61142634393487,69.92548880828063
306.29942871879507,70.66135797722717,68.92159080782089,68.58755058109942
306.63278254590466,71.30623753312011,68.87134842343025,68.19038066039599
306.96613637301425,70.87297729047688,67.89907336452664,67.29467838443098
307.2994902001237,70.89389310510293,67.03501590274182,66.95586186075936
307.6328440272333,71.45006909174118,67.00638149030183,66.97220758766983
307.9661978543429,71.26011613420951,66.5130734296098,66.499539759512
308.2995516814524,71.11380074723667,66.3096164935337,66.59532313856182
308.632905508562,71.46931121966192,66.39386645532299,67.14742653760241
308.96625933567157,71.00188474044735,65.83693165064824,67.00739069227065
309.29961316278104,71.24729908243836,65.69186736928944,67.51483085951114
309.63296698989063,70.3287062073617,64.59012246414365,67.3436226167436
309.9663208170002,70.05905798084022,63.839499272670054,67.51159575102417
310.2996746441097,70.50747820028266,63.98172541819872,68.10844527405618
310.6330284712193,69.83549485064044,63.26996598608021,67.9490477397635
310.9663822983289,69.63327116829555,62.85662214016628,68.35917033622216
311.29973612543836,69.86831071667372,63.05645367122016,69.15885431412492
311.63308995254795,69.07993980701826,62.4076708531106,69.12772327155179
311.96644377965754,68.70991055369487,62.46528316479721,69.15076094179433
312.299797606767,67.26677552279239,62.010917979391664,68.39288644781483
312.6331514338766,66.3455923253461,62.136025031161125,68.0652827627532
312.9665052609862,65.93921928771553,62.62986390388629,68.42719103711141
313.2998590880957,64.63709749647786,62.09175915692029,67.89776511107411
313.63321291520526,64.00325439881023,61.99199769279189,67.72838776105928
313.96656674231485,63.839243323308835,62.19916547977596,68.03202916871804
314.29992056942433,62.96528486703928,61.48190377146996,67.59368761210428
314.6332743965339,62.6239083668204,61.189412978015234,67.39961917045866
314.9666282236435,62.949906666960274,61.238209751310904,67.66067735649268
315.299982050753,62.56677533314279,60.78420761108842,66.9719179570076
315.6333358778626,62.68520228062821,60.77917802420354,66.7937542286622
315.96668970497217,63.312204199670404,61.284130104630464,67.11215793343189
316.30004353208165,63.01300300755517,61.087343988516814,66.78559784825131
316.63339735919124,63.10312068699354,61.5558520846708,66.865502137959
316.9667511863008,63.829114221495956,62.504417735674586,67.6914573004673
317.3001050134103,63.54765624304304,62.34278841251233,67.90955752005064
317.6334588405199,63.6062194835623,62.39371686614699,68.6511618116844
317.9668126676295,62.533998262159116,62.05126634818698,68.61501080379728
318.30016649473896,61.90051033536096,62.25329269615696,69.19846409827134
318.63352032184855,61.98892606783612,62.689096416219584,70.0640209138977
318.96687414895814,61.4905141502851,62.10326754604671,70.07793186637406
319.3002279760676,61.593781036394134,61.90066907548409,70.62662441006012
319.6335818031772,62.19424543763591,62.04579377703772,71.72398072815214
319.9669356302868,62.237015521345356,61.20150927652566,71.61215244785345
320.3002894573963,62.76032542402049,61.06116646273606,71.98873300504358
320.63364328450587,63.34714496131147,61.24934836110417,72.86208079575586
320.96699711161546,62.865343140726445,60.78051778211973,72.5642983354698
321.30035093872493,62.900718086112946,60.76255834546678,72.48743055914879
321.6337047658345,62.31976010940428,60.11652050976789,71.41946762959289
321.9670585929441,62.350800980905,59.93897813575144,71.08979943208071
322.3004124200536,62.72050598314613,60.11787322532098,71.09017519340433
322.6337662471632,62.45420805263279,59.827144238268865,70.2336560040713
322.9671200742727,62.59620307318346,59.80989654496659,70.04543150543289
323.30047390138225,63.122835671965255,60.373514799474805,70.53747944169979
323.63382772849184,62.88516592081667,60.08521425475183,70.3268521085868
323.96718155560137,63.27322072164926,60.31897281113976,70.6592324392462
324.3005353827109,64.3117985012389,61.18581659773259,71.40304112887617
324.6338892098205,64.5823879411524,61.459068228299124,71.33818890051819
324.96724303693003,65.16253561587108,62.34146787209494,71.31374119159524
325.30059686403956,65.28996899099208,62.2917340618108,70.24235494979708
325.63395069114915,65.83708250987581,62.47157369985041,69.60570615847654
325.9673045182587,66.71152138253295,63.23860581857953,69.73931741413115
326.3006583453682,66.7317268455893,63.10641825455224,69.13205136709965
326.6340121724778,67.24238993994899,63.48778307731576,69.34485988029056
326.96736599958734,68.18443014658718,64.22401479772448,70.4516416109872
327.3007198266969,67.97221043513005,64.11725320498093,71.05248288836219
327.63407365380647,68.05720846448796,64.23432507562823,72.17723972714668
327.967427480916,67.47598928540806,63.658473022626424,71.7494261004127
328.30078130802553,67.16602113078626,63.448078358695035,71.54199817412488
328.6341351351351,67.46790430730987,63.68388401037417,72.05024287163158
328.96748896224466,67.00422999269884,62.96575847069128,71.10638906878167
329.3008427893542,66.86348702748565,62.884666951754625,70.49179065340458
329.6341966164638,67.34022459517367,63.86756813343331,70.45402438103244
329.9675504435733,66.88237954235532,64.45335688976517,69.83229736298962
330.30090427068285,66.95904502223458,65.432448164658,69.74331163091713
330.63425809779244,66.06240262918644,65.45116835376928,68.8803208623271
330.967611924902,65.7712729600555,65.46243881819044,68.44582632348138
331.3009657520115,65.87037091878895,65.83257283539353,68.23804153638044
331.6343195791211,65.01294387814708,65.30266713191942,67.06970622011477
331.96767340623063,64.58129951552763,65.48509377139041,66.58781390643009
332.30102723334016,64.8030916893985,66.2606882363677,66.52689791665222
332.63438106044975,64.34483382686878,65.94747894252471,65.52221646693003
332.9677348875593,64.0668341496356,66.32814345448806,65.08869939202745
333.3010887146688,64.34422918296225,67.13797048141434,65.31959932108397
333.6344425417784,63.56766758609991,67.3900702605233,64.57480107386502
333.96779636888795,63.18031085891566,68.12358994428516,64.31885495979441
334.3011501959975,61.9098057802731,67.59029573636232,63.37140133720331
334.63450402310707,61.08284737858145,67.41912832772783,63.088890806384114
334.9678578502166,60.62158488403454,67.49742124984482,63.32211281452328
335.30121167732614,59.47392690762877,66.6357517499253,62.684764022227256
335.6345655044357,59.0556166152019,66.4270585321078,62.36162336449729
335.96791933154526,59.19934596737353,66.75246161394436,62.26006119480709
336.3012731586548,58.71405043565358,66.12794566804065,61.37560895215409
336.6346269857644,58.6930968056114,66.01371352512078,61.23462533752915
336.9679808128739,59.12951118888235,66.25461079786388,61.43978737071498
337.30133463998345,58.67687946501176,65.60451913079311,60.86602704409719
337.63468846709304,58.59391340133873,65.4746766893685,60.63959740674903
337.9680422942026,57.74741596978231,64.45032428073486,59.90590328483195
338.3013961213121,57.32039526827048,64.1363959501886,59.56263029373247
338.6347499484217,57.392899057288965,64.45734574705071,59.663480043721115
338.96810377553123,56.7647859346984,64.00494306704633,59.07258888613311
339.30145760264077,56.61205368387366,64.17813182923341,58.79457866470467
339.63481142975036,56.801242692378736,64.71379059259871,58.8157262249811
339.9681652568599,56.4207518196021,64.22147664203023,58.348859063728305
340.3015190839694,56.59843640161555,64.03971986444677,58.58468642927923
340.634872911079,57.05591345589317,64.21930483066306,59.33907428209065
340.96822673818855,57.041995242455684,63.65749091533102,59.57664748354289
341.3015805652981,57.78895968634238,63.472435785809665,60.30996059687568
341.6349343924077,57.71630942119097,62.76860192175634,60.43904686812194
341.9682882195172,57.91674109028539,62.634980124753184,60.949676662071674
342.30164204662674,58.43946717436467,62.8175802382897,61.5691104444475
342.63499587373633,58.344899955571044,62.33819292778225,61.39801294577331
342.96834970084586,58.65313306866382,62.45393823070957,61.42690477396181
343.3017035279554,59.41191537804004,63.18840687342545,61.712193304230446
343.635057355065,59.24060213380365,63.25283628218248,61.54437572035964
343.9684111821745,59.43815248220585,63.860877501634356,61.84331919269019
344.30176500928405,58.789520980260434,63.55383588768968,61.17910605415147
344.63511883639364,58.59852610422172,63.595392704721554,61.2574988840248
344.9684726635032,59.05090585485063,64.36300039559232,61.93477682352934
345.3018264906127,58.71217455370362,64.35366185266216,61.91870965497874
345.6351803177223,58.625513769565046,64.80083803602608,62.131229183664274
345.96853414483184,59.195224797237,65.54232759351883,62.65874401273012
346.30188797194137,58.95387459422843,65.53134534890889,62.32824241533816
346.63524179905096,59.18192901102859,65.5869826451472,62.36064895174628
346.9685956261605,60.22888160096706,66.07306207059621,63.14818431263702
347.30194945327,60.38965627301137,65.94773266154904,63.13622094213901
347.6353032803796,60.823075362782355,66.2589662927419,63.8982928107159
347.96865710748915,61.520984008107924,67.06291132608726,65.3549751338991
348.3020109345987,61.67288991235226,67.17724738096973,66.26556017236143
348.6353647617083,62.342659983003415,67.95750022642837,67.42289656401226
348.9687185888178,62.65002254507806,67.47645565450718,67.88641709584941
349.30207241592734,63.26902032342704,67.3735712897969,68.73472057833781
349.63542624303693,64.23958045856934,68.02680408634833,69.90683440830728
349.96878007014647,64.14991367452535,68.03721707182785,70.2604211849256
350.302133897256,64.59733633656916,68.49950761433907,70.90563825018096
350.6354877243656,64.35020914565409,68.0104472062207,70.64207903328371
350.9688415514751,64.72482926200315,67.60724128716966,70.95558959170785
351.30219537858466,66.00060243595821,67.71595618612797,71.48360640224743
351.63554920569425,66.55790014357247,67.38901654836405,71.16996881601787
351.9689030328037,67.86990380918311,67.8886773268593,71.08594292711408
352.3022568599133,68.05858908061045,67.54170567478215,70.21725429558629
352.6356106870229,68.67806274799602,67.81789025779437,70.08583183853311
352.9689645141324,69.55281866642247,68.76691948965212,70.21612212538636
353.30231834124197,69.31534688039416,68.67288606447589,69.60164301647559
353.63567216835156,69.44384004532417,69.00944339773311,69.14763825833548
353.96902599546104,68.61275841149664,68.52322327136615,67.99712705444962
354.30237982257063,68.17407643323513,68.53998359235325,67.6151532705332
354.6357336496802,68.27937365368197,68.79613075040716,67.57092098006613
354.9690874767897,67.42959701456758,67.92926689256994,66.73670398530888
355.3024413038993,67.17707448096748,67.66058271809638,66.5110571235348
355.6357951310089,66.13011463607722,66.88557714118065,65.73068313143355
355.96914895811835,65.41167821927753,66.61377533975231,65.37194821482547
356.30250278522794,65.40235981699678,67.01628541514403,65.20307839480715
356.63585661233753,64.85461154308496,66.85186032891501,64.27483343059971
356.969210439447,64.77129719327701,67.35448798597591,63.993725283796536
357.3025642665566,64.97107712817922,68.56549972194895,64.32144776508241
357.6359180936662,64.63960699969867,68.96332244748231,63.93400116658797
357.96927192077567,64.94661649406302,70.1541877146556,63.833182905934514
358.30262574788526,64.80864830751106,70.25314109893564,62.65044191799264
358.63597957499485,65.41911491534648,70.43366038833179,62.143874976485755
358.9693334021043,66.46995357489764,71.06293790116439,62.268764568066864
359.3026872292139,66.58923613876541,70.77052011813312,61.80580692063141
359.6360410563235,66.96905943860722,70.97079353835485,61.77216243317412
359.969394883433,67.58312231286658,71.45973772263642,62.34338378717629
360.3027487105426,67.27511465172792,71.1343128746517,62.05868257317413
360.63610253765216,67.45618026853091,71.62320608180582,62.34985722304524
360.96945636476164,67.03718322133021,70.9656119739625,61.976790812334116
361.30281019187123,67.12208504318149,70.62288539890807,62.18256975855443
361.6361640189808,67.6851828066395,70.5998047129178,62.97010498960545
361.9695178460903,67.52225602540057,69.54768871018759,62.95981839105903
362.3028716731999,67.68236999100762,69.2044107654261,63.01340778967264
362.6362255003095,68.47367269122816,69.18865017227832,63.595200692436464
362.96957932741896,68.26218526592382,68.35595349061335,63.599519046036896
363.30293315452855,68.34754798367781,67.8139240861528,63.92064428779768
363.63628698163814,67.37815826491172,66.68018883806374,63.41347303366163
363.9696408087476,66.86440076888216,66.56678901078887,63.27295713588792
364.3029946358572,67.15475437301956,67.014219620615,63.673147243325644
364.6363484629668,66.55288344537058,66.56765256881243,63.55809291421346
364.96970229007627,66.60462477964242,66.57359036758659,63.690296968817464
365.30305611718586,67.22428210813672,67.03853188113845,64.22127473819398
365.63640994429545,67.08850053049264,66.68202866351287,63.829135340745395
365.9697637714049,66.9362847534865,66.82117302795305,64.20683495121209
366.3031175985145,67.28249401744242,67.49096968835893,64.88063499116095
366.6364714256241,67.1107660621323,67.57931473606246,64.52068405568016
366.9698252527336,67.33597309522006,68.10624641937395,64.57363353596699
367.3031790798432,66.76749357829881,68.03859769390469,64.1110893461052
367.63653290695277,67.08269920711268,68.19719362260751,64.07737882809836
367.96988673406224,67.9415608599721,68.52601027976411,64.51949165209801
368.30324056117183,67.9828816304746,68.13351881913252,63.96800347061457
368.6365943882814,68.8565388005336,68.29689004307265,63.64118589956123
368.9699482153909,70.19888852478606,69.16990543633732,63.91150572438019
369.3033020425005,70.4918251510565,69.41613958038205,63.57162158584478
369.6366558696101,70.84759118882616,70.14209646776628,64.08685280835724
369.97000969671956,70.27954651831348,69.83648236925266,63.83111083518576
370.30336352382915,70.64139528209265,69.6304452332272,63.774649159672734
370.63671735093874,71.98768609966866,70.12828645767327,64.21676201941975
370.9700711780482,72.074820183038,69.87271574131603,64.07246674465979
371.3034250051578,72.19881905619717,70.17160483158462,64.27897681218845
371.6367788322674,70.93727605347078,69.55977352993932,63.615211156954594
371.9701326593769,70.06488599110737,69.29500319504102,63.367399641546
372.30348648648646,69.75978645232938,69.4077262756817,63.66080645882473
372.63684031359605,68.53009318021513,68.74547752304966,63.49823781349635
372.97019414070553,67.88569148891568,68.82837551098386,63.70852848699468
373.3035479678151,67.86355864439764,69.40495960956828,64.32163632399603
373.6369017949247,66.70528018046203,68.9688925409154,64.19195909912413
373.9702556220342,66.36104697417788,68.63322608468782,64.79187549491697
374.3036094491438,66.71802333507124,68.70372856022551,65.99994716341712
374.63696327625337,66.46815070892508,68.39686197138371,66.25755362542921
374.97031710336285,66.88692019889342,68.63664670026591,66.56658634110813
375.30367093047244,66.27482382747269,68.07995617476641,66.11460033943209
375.637024757582,66.28505330218026,68.05932066079919,66.37242714104501
375.9703785846915,67.07767906327189,68.58885933308257,67.13249193305072
376.3037324118011,67.15504559411275,68.42466893199217,66.98919922791197
376.6370862389107,67.48471821129556,68.73612122952842,67.38911953400317
376.97044006602016,68.58582538946924,69.08316215790546,68.2406643291845
377.30379389312975,68.71481317657661,68.89076314429934,68.49646664262066
377.63714772023934,69.40449046563697,69.27831153593799,69.38548847678476
377.9705015473488,69.05990374815339,68.73595090587011,69.40304560222725
378.3038553744584,69.14664447451146,68.53409909880905,69.91434829811195
378.637209201568,68.33355451941908,67.41867168405759,69.61754199472159
378.9705630286775,67.76864635710956,66.74027824330598,69.64113398348226
379.30391685578707,67.821879689181,66.77059963539153,69.92168806737385
379.63727068289666,67.17686247589343,65.92960766039745,69.35746704658534
379.97062451000613,67.10397887497183,66.03213591267954,69.41987782475464
380.3039783371157,66.36331245123351,65.23490078296366,68.85314644417886
380.6373321642253,66.29510773145334,64.6910916255614,69.00816286230963
380.9706859913348,66.59750684455439,64.6819126011785,69.99650600916543
381.3040398184444,65.8202955600238,64.28266473390424,70.09620419058896
381.63739364555397,65.65950334185273,64.28333194996911,70.40791336441339
381.97074747266345,65.84392229278575,64.88998821375989,71.04954473173896
382.30410129977304,65.23477507865638,64.64986400597053,70.33480763980151
382.63745512688257,65.008796169185,64.97666611130494,69.97354871524495
382.9708089539921,65.10953632576528,65.8264391948653,69.94203904327138
383.3041627811017,64.39361460782355,65.69019958954901,68.87101192627652
383.63751660821123,64.24445951117549,66.15968521125377,68.10380719454582
383.97087043532076,64.38352424780253,67.14788540548868,68.00873366376584
384.30422426243035,63.545861109615174,67.47028553137808,67.1109436102184
384.6375780895399,63.34133506033753,67.92866347700979,66.70213827753055
384.9709319166494,63.8152889654167,68.27966394707346,66.70192051689679
385.304285743759,63.39543634296711,67.74384549684717,65.76268971398905
385.63763957086854,63.4253218705722,67.75889895112036,65.15205315940628
385.9709933979781,62.58846689666989,67.1578160089805,63.75978339961043
386.30434722508767,62.1050567970413,66.96831316494334,63.04389370816578
386.6377010521972,62.17355002108895,67.18012916986935,62.78342160933586
386.97105487930673,61.58192285664399,66.24799784854628,61.599371384265915
387.3044087064163,61.3308271644251,65.45498515203299,60.85644264619579
387.63776253352586,61.71316607850156,65.03996798999962,60.811320245556416
387.9711163606354,61.156257842093176,63.97590057543377,60.0934731003164
388.304470187745,61.063505137537874,63.25765868114204,60.08170034466294
388.6378240148545,61.39482459712736,63.27533085617635,60.38624791142296
388.97117784196405,61.226588455061986,62.47601165981506,60.01750181683342
389.30453166907364,61.43623767564448,61.92516348235177,59.85296980163546
389.6378854961832,60.89667966860476,60.75569829902123,59.17010723441781
389.9712393232927,60.86815796181504,59.946604014975144,58.9428813279179
390.3045931504023,61.3855183859467,59.7319313867844,59.04760626745472
390.63794697751183,61.09116602498085,58.66315794533692,58.48960892428387
390.97130080462136,60.98587070067991,57.89541929365281,58.55739202610482
391.30465463173095,61.16894596724205,57.45634257702905,58.94849409554311
391.6380084588405,60.449320027792865,56.24858037298209,58.63979988434767
391.97136228595,60.02690462079392,55.523933216524526,58.678599603025525
392.3047161130596,58.95412174708992,54.49627875581314,58.22041515108045
392.63806994016915,58.35186557715424,54.0269133298627,58.0732179422601
392.9714237672787,58.57298759845723,54.083184390936225,58.21906647340785
393.30477759438827,58.41933091059572,53.6263504227377,57.69995989756418
393.6381314214978,58.610568161188965,53.64788215204207,57.57109312163399
393.97148524860734,59.15245931216873,53.82042500949075,57.90029708698332
394.3048390757169,58.62399840585826,53.21201231774988,57.77972702708809
394.63819290282646,58.10027449300468,52.871133781404914,57.97902992068142
394.971546729936,58.13559414932654,52.84735676381428,58.79199962317427
395.3049005570456,57.453699053511144,52.00805031154375,58.761346970252525
395.6382543841551,57.242544508888066,51.47968737482898,58.86227606846652
395.97160821126465,57.64995413262669,51.46922505835501,59.43550369794213
396.30496203837424,57.419523326588596,50.843781629344036,59.39622989017828
396.6383158654838,57.864610946743255,50.416680748787115,60.00852589139415
396.9716696925933,58.630313267772834,50.417794589783746,61.01167398770277
397.3050235197029,58.53092422054206,49.75186698300737,61.13550228665804
397.63837734681243,58.61863358109748,49.41446198684329,61.617512117948465
397.97173117392197,59.278238906170294,49.57528143811756,62.6642932175372
398.30508500103156,59.12938070622066,49.39494098679523,63.08070558739723
398.6384388281411,59.06859910767776,49.82402098443429,63.913699524706416
398.9717926552506,59.389061744298914,50.56601330771836,64.81882385072873
399.3051464823602,58.79432713573165,50.584336801228126,64.71657333382784
399.63850030946975,58.651829811551075,51.035962006475366,65.19918964497869
399.9718541365793,58.9092817876299,51.831547738196605,65.93024869389676
400.3052079636889,58.419788848328224,52.072289446082635,65.95988371668821
400.6385617907984,58.30671912487347,52.72038712914616,66.22148532961401
400.97191561790794,58.56978235346704,53.58205833997095,66.629149132991
401.30526944501753,58.11066078793953,53.44453698500513,66.31587926160267
401.63862327212706,58.27760581680651,53.709487627912345,66.35332452153365
401.9719770992366,57.53608690417741,53.175474935492886,65.88382552649924
402.3053309263462,57.22341446996552,52.95102851785423,66.00521855916307
402.6386847534557,57.342551611572425,53.12670192852323,66.5742212268883
402.97203858056525,56.70860696294053,52.69773743875894,66.11521618621073
403.30539240767484,56.58207976293638,52.7132863732305,66.12503538787418
403.6387462347844,56.740950432018565,53.14541081704313,66.64855790083783
403.9721000618939,56.09087309557453,52.98922207505872,65.96871202769559
404.3054538890035,55.59102796378658,53.47334740865945,65.83041542992532
404.63880771611304,55.46189182804483,54.56652372199405,66.50113978540082
404.97216154322257,54.9486907118583,55.096733631967766,66.17132401498895
405.30551537033216,54.726692604224546,56.0225886706583,66.37251063390674
405.6388691974417,54.77111850978904,57.12671884963977,66.78056776204615
405.9722230245512,54.44592912248447,57.218638531587125,66.18531437949277
406.3055768516608,54.524651341578476,57.58548781215733,65.81994652348796
406.63893067877035,54.85365219267316,58.06328919783728,65.90595782454638
406.9722845058799,54.6124128553285,57.592493344318555,65.3342711506923
407.3056383329895,54.91403753601424,57.437060129280184,65.11637683511569
407.638992160099,55.76962832803085,57.56605482279501,65.20240218885921
407.97234598720854,55.77725355074733,57.08457951310032,64.64404547866026
408.30569981431813,56.0507200759202,57.187390174889885,64.4276163774748
408.63905364142767,56.834546731746485,57.325035140088744,64.69682948864724
408.9724074685372,57.181850535148676,56.56629210414305,63.99434086109003
409.3057612956468,58.01065818777653,56.362498464976866,63.814146554079784
409.6391151227563,59.28142696199488,56.507275889559594,63.87919738145619
409.97246894986586,59.74765583856956,55.85561098314106,63.04196111314158
410.30582277697545,60.59256548466399,55.747466301109135,62.77985202381275
410.639176604085,61.667330420337514,55.96930925405133,62.87481223808074
410.9725304311945,62.06584209627092,55.30323445435442,62.07189034738934
411.3058842583041,62.901361461208076,54.95562305563845,61.44768820465404
411.6392380854136,63.07119754178681,54.16865493893601,60.295688141118184
411.97259191252317,63.778101994767404,53.95564682916114,59.86828629199753
412.30594573963276,64.72946809311244,54.0184462641218,60.08697550094389
412.63929956674224,64.5561808603877,53.571869026344636,59.79820344960464
412.97265339385183,64.80874989608554,53.81846425914901,59.791363899743786
413.3060072209614,65.33886814779856,54.661328971755914,60.24811047624928
413.6393610480709,64.87550833119535,54.77498093416201,59.806116406803426
413.9727148751805,64.96976362041418,55.22186262115924,59.79041120423647
414.3060687022901,65.7706106614379,56.05269900430685,60.104792140754896
414.63942252939955,65.64444543309678,55.97739843666781,59.662862655567025
414.97277635650914,66.0201601207249,55.94005876060144,59.91697133748836
415.30613018361873,66.80610916285153,56.41883533845125,60.87557722119884
415.6394840107282,66.6042499487954,56.274451691526,60.78599433894137
415.9728378378378,66.52464313895102,56.77937859844412,61.176727980056484
416.3061916649474,66.80017447501163,57.59577164763525,61.87615969003508
416.63954549205687,66.35715842502613,57.8926030302662,61.98627598005154
416.97289931916646,66.55722986940275,58.728667003870385,62.38923109429551
417.30625314627605,65.82417413889151,58.567389021245084,61.9546713310437
417.6396069733855,65.55811961970687,58.741589972896605,61.906638876099585
417.9729608004951,65.74815770638389,59.162522171400255,62.50332309268715
418.3063146276047,65.25083139158585,58.56918895253773,62.23708663538399
418.6396684547142,64.99972680016334,58.31570435120985,62.15145112320504
418.9730222818238,65.24657461860514,58.64036027173994,62.52146328722686
419.30637610893336,64.72976429727944,58.550406488994845,62.16107715885422
419.63972993604284,64.51592266499819,59.17348871323213,62.44846027963287
419.97308376315243,64.52772394905627,60.38089571703647,62.92468595973219
420.306437590262,63.60729952821817,60.74386765681416,62.59448267031488
420.6397914173715,63.40838194263993,61.33600232207605,62.99630561858117
420.9731452444811,63.61718178872856,62.39224472565376,64.02356859793646
421.3064990715907,63.00347067266854,62.514807379597485,64.1070469437509
421.63985289870016,62.789315422729985,63.17683766922502,64.6781459392575
421.97320672580975,62.02734256233049,62.92944977483533,64.36603664858019
422.30656055291934,61.872045011646,62.75088957635668,64.76265015988805
422.6399143800288,61.85981916285088,62.983374902982774,65.69999586301765
422.9732682071384,60.86766723915031,62.274503123203445,65.4974990954353
423.306622034248,60.017192635528176,61.828929109177366,65.7970832027522
423.63997586135747,59.4249465119518,61.74386360520992,66.58679771175599
423.97332968846706,58.34063085768726,60.985507697245666,66.13695883307825
424.30668351557665,58.04631230319318,60.61152175658488,66.08083613377487
424.6400373426861,58.14272923324342,60.86847756921116,66.42341868469077
424.9733911697957,57.460789635472366,60.691858166223135,66.24581468196044
425.3067449969053,57.00035478216851,60.84628675912137,67.02064834080905
425.6400988240148,55.840212387646716,60.40587240634273,67.07183240735161
425.9734526511244,55.26035901742089,60.474354377638434,67.44845229208579
426.30680647823397,55.196189514928676,60.94113640774533,68.23398292644185
426.64016030534344,54.47995982255865,60.52634414521075,68.33344453372109
426.97351413245303,54.216559440336596,60.61906862487772,68.85732761360035
427.3068679595626,54.39886385676464,61.25154599941305,69.98508909497893
427.6402217866721,53.908089625391106,60.958494881656776,70.2087513110679
427.9735756137817,53.97777825391171,60.98429412566389,70.87247773294823
428.3069294408913,54.777024086273165,61.50475021936468,72.03289135576262
428.64028326800076,54.67671897506351,61.38285862000522,72.19165464828075
428.97363709511035,54.75640513291731,61.43949450107114,72.56947219160804
429.30699092221994,55.315116026524464,61.61100076547056,73.3826117514925
429.6403447493294,55.10002287841256,61.14946311699614,73.05421056017808
429.973698576439,55.241140070718664,61.34157517227592,72.92201199975497
430.3070524035486,55.74306121886658,62.30509276453829,72.78952397996218
430.6404062306581,55.444914731190096,62.552390690142744,71.57407477606226
430.97376005776766,55.43074038895465,63.25000112252249,70.93407203084482
431.30711388487725,55.83985709352735,64.34223368621204,71.18805913460317
431.64046771198673,55.45011883604285,64.70142412382164,70.56633944764414
431.9738215390963,55.447205367917974,65.64424322923567,70.45997552918274
432.3071753662059,54.800334334700295,65.63346156773922,69.55343686759741
432.6405291933154,54.52600058696739,66.26926664821869,69.07800155963301
432.973883020425,54.81322428144908,67.4517239175153,69.26902485334881
433.30723684753457,54.436800040873564,67.63923302708216,68.6760688971545
433.64059067464405,54.50367023100808,68.12375648841868,68.36015308502346
433.97394450175364,55.00963219806957,68.76194869462493,68.58741801074682
434.3072983288632,54.883395078500754,68.43867186134786,68.15142832558045
434.6406521559727,55.0533390396995,68.23901701143637,68.37755091384335
434.9740059830823,55.695748320122256,68.44717674812621,69.26002311323892
435.3073598101919,55.5053893091693,67.73620645956386,69.43351549962199
435.64071363730136,55.95078131706835,67.65755342837284,69.99120869960217
435.97406746441095,55.71495545806534,66.71244544844893,69.64278321695306
436.30742129152054,55.83426025574674,66.5543138414782,69.64764647841513
436.64077511863,56.39746707865136,66.98332657756272,69.91578740409247
436.9741289457396,56.508839439244774,66.45975933059286,69.30612989891344
437.3074827728492,57.08244777123666,66.32820889982575,69.29319955107452
437.6408365999587,58.0537659329528,66.63818641157133,69.64715364825997
437.97419042706827,58.303240796675496,65.99084064490854,69.05155311083622
438.30754425417786,59.04225278469761,65.93942013407515,68.72921607681391
438.64089808128733,58.602581473623395,64.97706501405756,67.30619868946222
438.9742519083969,58.23782648566236,64.9136437302365,66.4705287890173
439.3076057355065,58.17037256333683,65.49058359945336,66.11626867654421
439.640959562616,57.21196501167267,65.30519360431373,64.86243797088238
439.9743133897256,56.620480274275266,65.77190162264897,64.0752705435481
440.30766721683517,56.65068512429381,66.42921749482136,63.59726864623739
440.64102104394465,56.005187336712225,66.16930347031213,62.60174262483512
440.97437487105424,56.0738500347817,66.56030970450291,62.345841611804424
441.30772869816377,56.76658593071038,67.72513729688993,62.64030181353439
441.6410825252733,56.54358047905141,67.79194957615013,62.351351070181245
441.9744363523829,56.80580258613934,67.96225276956578,62.44138074839391
442.30779017949243,57.49855777889148,68.61572527249619,62.70845958911601
442.64114400660196,57.41083347729743,68.28084847054065,62.209605101352096
442.97449783371155,57.65735629350277,68.22281393287548,62.08837340186191
443.3078516608211,58.13925576268057,68.56784628791236,62.208394983215356
443.6412054879306,57.825305528015264,68.2355766863019,61.736446262785414
443.9745593150402,57.89638036689055,68.61628701684535,61.66032918929795
444.30791314214974,58.39181526377706,69.72665298118446,62.171824476257285
444.6412669692593,58.483687997846395,70.01344608935942,62.01183225145411
444.97462079636887,59.076237065756644,70.91714691220906,62.16603199722819
445.3079746234784,60.18445516766306,72.36038195311612,62.97920663472851
445.64132845058793,60.401088205705754,72.44489432628902,62.975894217207305
445.9746822776975,60.964377050669206,72.88805004898498,63.21200829948457
446.30803610480706,60.907282402466144,72.13133966786272,62.35891076726108
446.6413899319166,61.26869458431757,71.77427466455751,61.60965796394029
446.9747437590262,62.02444072525888,72.16195855756679,61.289510090704674
447.3080975861357,62.161238445713956,71.51208725574982,60.08888581969864
447.64145141324525,62.74932924793089,71.47497498479088,59.52610628826834
447.97480524035484,62.55768801948575,70.7416131539476,58.536504464618
448.3081590674644,62.52938823571163,70.5439448785043,58.20689209591406
448.6415128945739,62.64262774940973,71.0414257796052,58.38533660969631
448.9748667216835,62.107829231183985,70.50988865866766,57.670422076864426
449.30822054879303,61.85290591816768,70.39021646997348,57.5615556112572
449.64157437590256,62.27707739902569,70.60448692397811,57.96154513167765
449.97492820301215,61.91222998789207,69.85760511757765,57.383972096621854
450.3082820301217,61.99022645565165,69.72160012279886,57.210212105442594
450.6416358572312,62.45974152175332,69.87393656636682,57.40127149285529
450.9749896843408,61.98072975141236,69.01861877656167,57.05272534663146
451.30834351145035,61.781227570454156,68.6017742736282,57.17495281101377
451.6416973385599,62.09996236261866,68.68294863502732,57.68119657904602
451.97505116566947,61.53817473088532,67.83154656136608,57.60164298214007
452.308404992779,61.22339581255394,67.44639512662211,57.696653400236904
452.64175881988854,61.42882493671763,67.34654769390464,58.1130662797745
452.9751126469981,60.45554827172582,66.3200136531655,57.820372396919524
453.30846647410766,60.12059216839852,66.11906886711945,57.96648328080392
453.6418203012172,60.25851219626513,66.34443792192005,58.47960883558765
453.9751741283268,59.92189786500396,65.59159898749846,58.18973372159992
454.3085279554363,59.887651555117955,65.31755523248316,58.17100744783241
454.64188178254585,60.47382677204291,65.33475676073617,58.46854606998885
454.97523560965544,60.43468952491179,64.54044948118667,58.1847278564605
455.308589436765,60.67571379879074,64.23546889081253,58.19379549214007
455.6419432638745,61.40208969238807,64.18575485089184,58.62880358565201
455.9752970909841,61.49461786549858,63.252769287872525,58.2511424460402
456.30865091809363,62.18710344864989,62.80916578297113,58.24054797420779
456.64200474520317,63.04166509826131,62.62043326814443,58.85386659950035
456.97535857231276,63.169909281337574,61.82669440877917,59.050343209113066
457.3087123994223,63.6165230039607,61.35338257556053,59.69975416789909
457.6420662265318,64.6272350918012,61.42663333860413,60.791391494618765
457.9754200536414,64.84071794990228,60.977653318022405,61.031726989185316
458.30877388075095,65.49260401268496,60.86319179484978,61.48949593764835
458.6421277078605,65.19602567350427,60.3090978347629,61.30938150333477
458.9754815349701,65.23968224719376,60.54941361629501,61.66172580535543
459.3088353620796,65.99385960542295,61.129860390665065,62.279338602993334
459.64218918918914,66.09331890071199,60.75201741363833,61.60069157477277
459.97554301629873,66.7178071130331,60.71267790747906,61.16449239090875
460.30889684340826,67.4970909943169,60.90341756819935,61.14532151787033
460.6422506705178,67.19463491741611,60.48095594369524,60.35983836956237
460.9756044976274,67.2233802098603,60.750332779264944,60.235138078919015
461.3089583247369,67.82023304957359,61.74743740884339,60.59201986735929
461.64231215184645,67.82156503681169,61.77899113739344,60.06999268498425
461.97566597895604,68.3042767695611,62.15878503285253,59.921090482621295
462.3090198060656,67.84182128012442,61.8685027148485,59.03574787949495
462.6423736331751,67.53065502459066,62.08326258746182,58.36102418251983
462.9757274602847,67.51101730696197,62.6180329862884,58.30442417122374
463.30908128739424,66.67796243055787,62.13973288023436,57.48487345442006
463.64243511450377,66.52388356083418,62.118405013762576,57.15790235876037
463.97578894161336,66.86409674288144,62.82825126337434,57.39966554185488
464.3091427687229,66.51496372068476,62.498155532018615,57.014688180903846
464.6424965958324,66.43316597442866,62.53715261889901,57.153194928305304
464.975850422942,66.85648374409234,63.01908120082656,57.5586639491916
465.30920425005155,66.04116515370228,62.5497110491777,57.4760613588471
465.6425580771611,66.01800268261397,62.40350461166298,57.84542501866815
465.9759119042707,66.6611355679344,62.822399885523105,58.83736151062691
466.3092657313802,66.43939581235693,62.454480665834105,59.11864562283837
466.64261955848974,66.65140720770749,62.58506503752162,59.99354409523971
466.97597338559933,65.91429469123645,61.96455081469618,60.04832346206653
467.30932721270887,65.4185175596187,61.69659248599031,60.09896536496416
467.6426810398184,65.492435335679,61.86431165288844,60.393198028065605
467.976034866928,64.87848403899172,61.21563042824529,60.246738124643755
468.3093886940375,64.81318060035267,60.98816900958087,60.663674745285526
468.64274252114706,65.25679974793528,61.09940486499057,61.36020417888193
468.97609634825665,64.78978284274598,60.45686722729516,61.08332775587864
469.3094501753662,65.0138379568974,60.15065686204555,61.23648693317807
469.6428040024757,65.67994504379394,60.42446995116428,61.705805257550274
469.9761578295853,65.44154903242027,59.9726901838915,61.35821927855912
470.30951165669484,65.20753490319238,59.78528307360891,61.48403895714417
470.64286548380437,64.21053256983902,58.826437893093875,60.972512611994226
470.97621931091396,63.7839920333868,58.37983203599573,61.01311867862558
471.30957313802344,63.81080459301025,58.63954755812259,61.61328919452946
471.64292696513303,63.068356549277375,58.09223503254282,61.24860962245951
471.9762807922426,63.07679579301994,57.86795491429411,61.29378593145071
472.3096346193521,63.59039119628645,57.64770769345156,61.81633293860835
472.6429884464617,63.21484568972804,56.73529647946211,61.4088899499371
472.9763422735713,63.076197963732625,56.331943882978436,61.42767456521398
473.30969610068075,63.207533015887854,56.234142963306155,61.814441730634314
473.64304992779034,62.65360998922611,55.641597291164466,61.601288215209834
473.97640375489993,62.69373099099824,55.35606943748905,61.92962894564164
474.3097575820094,63.06759459197398,55.52509787556506,62.616374179813924
474.643111409119,62.49480229055121,54.99755009218729,62.698489182536726
474.9764652362286,62.29720357596754,54.85322837087661,63.01019516131956
475.30981906333807,62.36728607962074,55.04737618314297,63.744241978734955
475.64317289044766,61.85183925334522,54.615167898677385,63.746010569823454
475.97652671755725,61.817925506265084,54.743898864791674,64.20330754717442
476.3098805446667,62.13015623578178,55.3223386517201,65.16360739329986
476.6432343717763,61.36626153922662,55.15401144951795,65.02658737382832
476.9765881988859,61.0830116863514,55.373750360061926,65.25031112367775
477.3099420259954,61.049356403651174,56.14118460594758,65.97985670855192
477.643295853105,60.31951836630917,56.15875983032163,65.74487513880354
477.97664968021456,60.28538845812199,56.66156486062754,65.83190530102559
478.31000350732404,59.67435015988399,56.34214052563917,65.20885106429488
478.64335733443363,59.560522175100715,56.258638240357314,65.05621600050472
478.9767111615432,59.89768652456698,56.392153864680054,65.38193382700726
479.3100649886527,59.512505968375265,56.31098647801834,64.68131307716263
479.6434188157623,59.620987970189326,56.72491810133294,64.19839314824004
479.9767726428719,60.187447646386396,57.51371548556867,64.23520104869618
480.31012646998136,60.3700857911371,57.347803000428286,63.465224015192966
480.64348029709095,60.932365247591974,57.786588029836096,63.290387231800594
480.97683412420054,61.76440104750859,58.62111116717307,63.696772297426655
481.31018795131,61.72794760476057,58.36712258879643,63.25517371340556
481.6435417784196,62.08919236590572,58.5018814408341,62.947876826603164
481.9768956055292,62.81361061251931,58.939006952428215,63.01297879702114
482.31024943263867,62.871876794882496,58.42892716543786,62.31847373319606
482.64360325974826,63.185829093368284,58.668148181735205,62.079339402994286
482.97695708685785,64.06186988276254,59.52334416783161,62.315274198559436
483.3103109139673,63.96298861931371,59.85704993423455,61.90790828761817
483.6436647410769,64.4498938005714,60.57521965575583,62.065249350008685
483.9770185681865,64.12049624658263,60.47702519874549,61.54197208793985
484.310372395296,64.50898153671804,60.64925260584114,61.639814011922866
484.6437262224056,64.989271163636,61.20060717204424,62.075935147361044
484.97708004951517,64.700576496297,61.01527252389115,61.989417695867985
485.31043387662464,65.06055762294902,61.40367224047363,62.78036362966694
485.64378770373423,66.16509568294856,62.04382562418062,63.85525860795786
485.9771415308438,66.58396157452765,61.99127135883771,64.25156509656748
486.3104953579533,67.43857306656781,62.46887131442905,64.93928575470991
486.6438491850629,67.48342383893625,62.146552350455806,65.18312987444807
486.9772030121725,67.93991797628695,62.05461774862335,65.94414681924533
487.31055683928196,68.69337107651504,62.351482300982674,66.93862156001248
487.64391066639155,68.62655906741277,61.539287214081206,67.06448101243325
487.97726449350114,69.17620908293935,61.31174286069417,67.83044016297062
488.3106183206106,69.16301121929799,60.5585570349363,67.4122529344294
488.6439721477202,69.46472219211586,60.431104734844716,67.40185683828157
488.9773259748298,69.85957173329538,60.4940970753282,67.70017410603093
489.3106798019393,69.13918046368107,59.795351849091126,67.25365721308162
489.64403362904886,68.91449959237812,59.78337651041686,67.26053872741701
489.97738745615845,69.25509197986294,60.44614180554896,67.6835192122615
490.31074128326793,68.85537012426447,59.958384952439545,67.32216162713647
490.6440951103775,69.13878571550708,60.1307307889606,67.60920401330881
490.9774489374871,69.45933198629497,60.90653314149384,68.2126328817823
491.3108027645966,68.56409198266218,61.08315635315592,67.63371072601309
491.6441565917062,68.25850722167664,61.76648392571937,67.41197590666343
491.97751041881577,68.5327583139553,62.98916463184458,67.73164728581258
492.31086424592525,68.05907040644016,63.34494405477122,67.0271825791603
492.64421807303484,68.1273280385941,64.17805667512783,66.8058533670072
492.9775719001444,68.58013646329563,65.16153091615695,67.11545557090842
493.3109257272539,67.8658288831597,65.18122226385627,66.57539566655811
493.6442795543635,67.78548069068572,65.96632285143703,66.58186979898453
493.9776333814731,68.16569656995394,67.3309326416434,66.6122320200349
494.31098720858256,67.84105618375288,67.56893366145732,65.69984727638926
494.64434103569215,68.14284158488057,68.20193013075627,65.59418345682028
494.97769486280174,68.86261444406009,69.47659656905144,65.74544437136741
495.3110486899112,68.80618028767014,69.87910547567051,64.96729190948875
495.6444025170208,69.36096062177673,70.69309207739465,64.88865706266382
495.9777563441304,69.25661717095007,70.40435572955383,63.896053640329136
496.3111101712399,69.640428483673,70.54342635700158,63.40255356632508
496.64446399834947,70.49906143189313,70.9913908062239,63.543459185481325
496.97781782545906,70.47227351398432,70.82579166641682,63.15978084378838
497.31117165256853,70.45743866662744,71.22282346283062,63.27028456799697
497.6445254796781,70.63210391027876,72.01121585947756,63.720046494442926
497.9778793067877,69.81541915868978,71.82333276196562,63.19640452308846
498.3112331338972,69.56858268967734,72.10294156669578,63.02574554670294
498.6445869610068,69.92328776612113,72.63271450769815,63.26098561868769
498.97794078811637,69.39436346764322,71.98393222353262,62.360450235565864
499.31129461522585,69.25536473132176,71.99138813653995,62.062510942879435
499.64464844233544,68.21259727872895,70.92816590754158,60.89246936196694
499.978002269445,67.81697266657164,70.64933235886068,60.22182163572337
500.3113560965545,68.14318470073131,70.76385615885738,59.86007323823367
500.6447099236641,67.52983783136833,69.87530709143421,58.98293047195175
500.97806375077363,67.38411364010216,69.32641164609493,58.99515763309554
501.31141757788316,67.95656575766185,69.07302779971221,59.28751634371386
501.64477140499275,67.64632770620473,68.14158280587979,59.041937669602966
501.9781252321023,67.64885759629136,67.76509449371764,59.24218909752123
502.3114790592118,66.90605105542679,66.78679530737443,58.710119415884215
502.6448328863214,66.51235644048427,66.21520393749263,58.69185438404598
502.97818671343094,66.3090896594789,66.3743469698977,59.23651128865231
503.3115405405405,65.36413526900097,65.47836123477526,59.05150856738804
503.64489436765007,65.34690156550668,65.14754181036464,59.394538108307685
503.9782481947596,65.80262321745423,65.44076009009137,60.301256595636936
504.31160202186913,65.18405747693163,65.26351421407679,60.279418830476985
504.6449558489787,65.03765398348855,65.70947927138623,60.372545001454924
504.97830967608826,65.31221693376096,66.71960801614348,60.88875311232857
505.3116635031978,64.68030462493512,66.84943198855055,60.88045252733985
505.6450173303074,64.55424254265007,67.33541150154765,61.68195404839442
505.9783711574169,64.82012928154235,68.22887868298294,62.670775677181595
506.31172498452645,64.30052445536187,68.12009490792389,62.90276802359704
506.64507881163604,64.16613395020252,68.6900700816859,63.59468074961124
506.9784326387456,64.23548368038836,69.7502934171618,64.3933108795531
507.3117864658551,63.71410700579354,69.9944256437673,64.25507565052591
507.6451402929647,63.71940766064262,70.39961060966334,64.69818560552984
507.97849412007423,62.94686305254678,69.62149047543137,64.2783416914059
508.31184794718376,62.562230239554914,69.74353752662448,64.47745332389063
508.64520177429335,62.58077951407519,70.70130216113735,65.35136264302189
508.9785556014029,62.00927616087442,70.69045976998927,65.5225980228173
509.3119094285124,62.26761968085344,70.78904907492424,66.29527165651186
509.645263255622,63.06992009786684,71.47221765195359,67.52882144178096
509.97861708273155,63.17464048892291,71.48680417758837,67.93106819032707
510.3119709098411,63.52094518101936,71.95134261719251,68.55227982914111
510.64532473695067,63.0088588211194,71.26524335554188,68.63011814164604
510.9786785640602,62.98890640861236,71.18215255185932,69.24072729261461
511.31203239116974,63.30909058211853,71.27461733035662,70.20107445467289
511.6453862182793,62.975770897539775,70.245005227207,70.1359453826558
511.97874004538886,63.14343142074691,69.99973388514542,70.6236643066204
512.3120938724985,63.90051550248275,69.56962813301419,71.54183054640443
512.645447699608,64.11251554936703,67.92124853372914,71.3377259788567
512.9788015267175,64.97485122975601,66.99035335211964,71.36730512020871
513.3121553538272,64.8247833309375,65.41208423580589,70.60937008837294
513.6455091809366,65.2614074040413,64.37934834912565,70.52630096459731
513.9788630080461,66.14757536237767,64.0550553563692,70.77728067452964
514.3122168351558,66.16530828639675,63.12095714586549,70.09479965616481
514.6455706622653,66.72643008231428,62.79467844778704,69.8218723929405
514.9789244893748,67.80209645511434,63.0008535730783,70.06024011940168
515.3122783164844,68.36417430368601,62.16862471234198,69.44036109032331
515.645632143594,69.25048931441906,61.74368779904934,69.26600755762817
515.9789859707034,70.48062225631634,61.80989823474813,69.43418326772344
516.312339797813,70.67902490535954,61.083091905961595,68.87328631885224
516.6456936249226,71.20786178450956,61.08972138977463,68.94133423118757
516.9790474520321,71.99269628201381,61.41572463870592,69.37254313874367
517.3124012791417,72.10095808464185,61.21160185954458,69.2492476560555
517.6457551062513,72.6838386253348,61.49353991841442,69.42172850681342
517.9791089333607,72.34937516810486,60.92929866670899,68.81022069654732
518.3124627604703,72.53411871277635,60.58377882384339,68.84903065276485
518.6458165875799,72.88495939118941,60.72459019207678,69.40034042612884
518.9791704146894,72.3569157510832,60.33749802387198,68.88271894646198
519.312524241799,71.97922615219139,60.71483116543099,69.09597545392529
519.6458780689086,70.86996889631494,60.246487287938464,68.78658488812454
519.9792318960181,69.8568875345301,60.359939343821935,68.96113924917887
520.3125857231277,69.36073429942434,60.99155354273868,69.57292291793026
520.6459395502372,68.05518710939484,61.05803661359742,69.21770868963422
520.9792933773467,67.42200401546036,61.52910009123498,69.23895746501898
521.3126472044563,67.29847248154194,62.44074472002742,69.67676670404103
521.6460010315659,66.20299226855902,62.84261348679222,69.61692681981611
521.9793548586754,65.88998692571701,63.944795834577846,70.08532408516153
522.312708685785,64.98318480697968,64.31751471078398,69.63177780982025
522.6460625128946,64.55775945724788,65.27616255618445,69.80860345033108
522.979416340004,63.21990324251413,65.57815708984096,69.16510241650924
523.3127701671136,62.9448812139177,66.22971311955526,68.89285061551871
523.6461239942232,63.20084969473473,66.96019348956126,69.25381266015707
523.9794778213327,62.5902542786193,66.43460439070533,68.92485561837785
524.3128316484423,62.348978868103956,66.44412764856634,69.53034759093892
524.6461854755519,62.38043551556099,66.88556786755471,70.59760648658309
524.9795393026614,61.89740746885873,66.50366246475583,70.61045075200181
525.3128931297709,61.97548509963076,66.52686701824051,71.15627120189825
525.6462469568805,61.16025859429189,65.7799907647902,71.06494190457212
525.97960078399,61.042000959117445,65.44653119749506,71.37396357575822
526.3129546110996,61.13965062250418,65.75001411107073,72.13432306960672
526.6463084382092,60.49178757604188,65.38200415192166,71.95673950519685
526.9796622653187,60.47522861639476,65.42472996322813,71.97168188368823
527.3130160924283,61.066654073906136,66.0508077246512,72.51104779024848
527.6463699195378,61.1323315536396,65.96785926697758,72.333851210676
527.9797237466473,61.47206783587102,66.16296272622142,72.45507491948392
528.3130775737569,62.20119380620798,66.679648707762,72.96032482299321
528.6464314008665,62.12346218760984,66.32542876693815,72.44966071620436
528.979785227976,62.35093075907715,66.41117671324616,72.25794423828819
529.3131390550856,61.677733717383994,65.7024908161301,71.35468504391689
529.6464928821952,61.73308292464106,65.49717185796906,70.99842456420268
529.9798467093046,62.264941068898786,65.51721216142137,71.00740744186776
530.3132005364142,62.03988194908776,65.19326812463618,70.26181884389368
530.6465543635238,62.4122738879146,65.26808810653311,69.89492643795808
530.9799081906333,63.18716424029069,65.93762686968243,70.13390504148364
531.3132620177429,62.99128554254652,65.77180236401765,69.44169021144326
531.6466158448525,63.188126550297945,66.03337423243993,69.4114225279819
531.979969671962,62.76689877987377,65.34065430529435,68.80456852005382
532.3133234990715,62.933430362622985,65.0464451722748,68.53220108129968
532.6466773261811,63.541243483393465,65.09721160034792,68.8296754923534
532.9800311532906,63.63467676099915,64.23374693895792,68.34882774813879
533.3133849804002,64.20355835287712,64.09451311790728,68.38245547178366
533.6467388075098,65.3019844491911,64.8553515657711,69.06457060286726
533.9800926346193,65.42679177083633,64.90746886228875,68.97612500880516
534.3134464617289,65.84279447144314,65.27994973162549,68.89288496979064
534.6468002888384,66.4170039457896,65.87083080492796,69.03741829862831
534.9801541159479,66.28216583640966,65.71874603310326,68.2807012647772
535.3135079430575,66.78708392794938,65.97772606297059,68.1195647324801
535.6468617701671,66.48833355302929,65.43172306905834,67.40865697306953
535.9802155972766,66.56062192074747,65.20814285200768,67.28605550241801
536.3135694243862,67.14734153701085,65.62049157072308,67.65918643520823
536.6469232514958,67.04291813248439,64.97991748196061,66.95694192820596
536.9802770786052,67.60341633607437,64.37339059139522,66.56753177870618
537.3136309057148,68.77787173773257,64.12687961771806,66.65977307827559
537.6469847328244,68.8389511494691,62.86372508184397,66.17063384177844
537.9803385599339,69.0471350702429,61.87368849199945,65.792911756046
538.3136923870435,70.0355655312172,61.46530891327701,65.82843790342902
538.6470462141531,70.1251544755175,60.509874784601905,65.25663192308501
538.9804000412626,70.36894039231287,60.13156857310338,65.24734985158354
539.3137538683721,70.8665777574633,60.25562012159196,65.4329155985105
539.6471076954817,70.31781153062722,59.7127424118726,64.81052466315114
539.9804615225912,70.42082193611367,59.85345736369628,64.60753692351572
540.3138153497008,69.3516082594996,59.449954167057676,63.527836207160306
540.6471691768104,68.77831840291304,59.26712038855522,62.65896807536203
540.9805230039199,68.59850183944712,59.42289455609459,62.66391435460713
541.3138768310295,67.50946906624942,58.964705576066955,61.86958511259683
541.647230658139,67.01121757073425,58.74393136997278,61.72914257099214
541.9805844852485,66.78386438662832,58.95065957173396,62.16920841155072
542.3139383123581,65.50962560577648,58.642056880537844,61.95067692109139
542.6472921394677,64.64583679644056,58.881793646663304,61.88116414829637
542.9806459665772,64.26779144286174,59.29154772340496,62.3560407094503
543.3139997936868,63.11777534131191,58.92535858221259,61.98469259407362
543.6473536207964,62.31947994346423,58.968445390782804,62.03289259792921
543.9807074479058,62.06144846565045,59.2142858413121,62.32959475214352
544.3140612750154,60.97950579047219,58.465853017040175,61.83491025370677
544.647415102125,60.43242655158602,58.25988953158457,61.75560047910945
544.9807689292345,60.36198870481026,58.5370073358322,62.180300592633465
545.3141227563441,59.70453881228498,58.094186481226274,61.90122516020033
545.6474765834537,59.61000905311714,58.24688101515322,62.13122834060162
545.9808304105632,59.70804810978242,58.85325787189786,62.574552031878994
546.3141842376727,59.28006142011111,59.160302189903554,62.10551915402731
546.6475380647823,59.12771991299947,60.05087571159466,62.04518015397164
546.9808918918918,59.26136965754936,61.56756558340287,62.76349274174027
547.3142457190014,58.87879608019248,62.134111009846336,62.848479867512545
547.647599546111,58.888927265378136,62.99280535956437,63.443581228962984
547.9809533732205,59.46497221799258,64.3005062301495,64.58473505349343
548.3143072003301,59.399359793664665,64.72622719941744,64.91011360854054
548.6476610274397,59.882694859119084,65.33657190132872,65.63839722270147
548.9810148545491,60.712234995753924,66.43631054459496,66.82734342919296
549.3143686816587,60.62159268451571,67.18829770939101,66.93318338076011
549.6477225087683,60.989299780356674,68.37367592245356,67.30348053139849
549.9810763358778,61.889239141325206,70.36267251165008,68.11160685512195
550.3144301629874,61.97466462615367,71.41077906968411,68.0071764017448
550.647783990097,62.332822272786615,72.9534404304998,68.6806675044574
550.9811378172064,63.17989869922527,75.07430729062577,69.89239171994006
551.314491644316,63.37107273663379,76.00651673818032,69.92109879992684
551.6478454714256,64.24223186531135,77.03601136824643,70.20392688691275
551.9811992985351,63.99413033802252,76.71256291405581,69.49983537408112
552.3145531256447,63.95224944424349,76.94839230356237,69.23780415355314
552.6479069527543,64.11854722542473,77.68003655602894,69.36468079402258
552.9812607798638,63.35438384991106,76.83216491216454,68.49944016860113
553.3146146069734,63.1387015006527,76.55109351207835,68.19534291423926
553.6479684340829,63.373756123973585,76.87419491277132,68.27274123406738
553.9813222611924,62.92305345344872,75.90172166844742,67.37165802612655
