Time,0,1,2
3.0,67.45831599540033,68.12246699179786,72.74963617656253
4.0,68.34690052028908,68.06377628078818,74.7534861617396
5.0,69.07496733014845,68.602179372841,75.5614148253666
6.0,68.56328435230141,69.7594973875559,75.45264424164952
7.0,67.22604102407101,70.46736826874734,75.32252628426995
8.0,66.33512992335375,70.18307178949536,75.33881310942964
9.0,66.08974848920514,69.09181383731281,75.12027201528348
10.0,66.45841242104544,67.5630675074556,75.13006813604409
11.0,67.03455755705731,65.70078583437443,75.64290177109545
12.0,67.34340174794359,64.09944626878877,76.27270994773485
13.0,67.70538081117836,63.14621165182762,76.41586213966089
14.0,68.19350423598249,62.66872120580817,75.99253357505593
15.0,68.26630949081763,62.720644861968275,75.46302011639584
16.0,67.72709972374592,62.73216084355514,74.81661750648374
17.0,67.40991971450147,62.524912734044676,74.13363522080653
18.0,68.22831587928746,62.687710310434696,74.02808568788602
19.0,69.70580398124878,63.019062810796214,74.35892789556277
20.0,70.69480336063744,62.806572397400764,74.09598103628544
21.0,71.08558877283407,62.88706025785728,73.44515348164849
22.0,71.2325804376424,64.12897215490132,73.08261213457082
23.0,70.91942370265501,65.7273972785223,72.28601424607132
24.0,69.7606150760845,66.72612755211716,70.88472313212024
25.0,68.49302515550771,67.37286528813195,69.45797082145067
26.0,67.54702895768152,67.64678043916886,68.18302604233261
27.0,65.90992289871103,66.5424175068552,67.03868357358967
28.0,63.77372601099653,64.42483024800349,65.99514680251957
29.0,62.119660397937345,62.730385100588705,65.45020246345152
30.0,61.033007444261145,62.11892074448689,65.20303436818854
31.0,60.280552361912996,62.02106537606905,64.69665918344916
32.0,59.695646605981146,61.471983280469395,64.02285323285446
33.0,58.86779001883719,60.97917348542945,63.80504049627084
34.0,57.866715918776066,61.50493830970043,64.12350328350195
35.0,57.32099465998226,62.857296630656315,64.30849548781191
36.0,57.62424177032966,64.66638122327632,63.790380270106574
37.0,58.773076578324755,66.42429852290925,63.303581124641155
38.0,60.58744958357009,67.37252292214669,63.62475520825081
39.0,62.45376756566846,67.33373687552023,63.9533811614789
40.0,63.80028116157058,66.80392941209536,63.968567537830246
41.0,65.03851393573953,66.04562482965768,64.07279616191246
42.0,66.50453431965622,65.14975508884953,64.88796363504395
43.0,67.78095214244554,64.42259629622004,66.51482476090189
44.0,68.60393967516286,63.96649607889226,67.85180758352774
45.0,69.33255066391509,64.20034402757392,69.19067292907648
46.0,70.57088088770514,64.98500954838659,71.1135772221592
47.0,71.49245611161268,65.05873116693374,72.32710671426648
48.0,71.38140404196305,64.0244300747074,72.14376119002092
49.0,70.71384953620188,62.57727803497549,70.81544759808902
50.0,69.52981693967855,61.464626253898956,68.70064270995212
51.0,68.59614125415379,61.137069458929595,66.6724284163133
52.0,68.12093606205455,61.306482738513644,65.59804089822944
53.0,67.57271250442906,61.27271370528779,65.27769420496686
54.0,67.30929148822214,61.25289796318942,64.52599596115243
55.0,67.27132232757023,61.99870134383872,63.30652937818736
56.0,67.26537306693449,62.77425194309802,62.9364174019179
57.0,67.16443144361762,62.66129420961373,63.787741799190464
58.0,66.81495188708467,62.20578482828524,65.49708992662748
59.0,66.2748083189042,62.03672699535196,67.88622006855351
60.0,65.16350787276755,61.90080981289523,70.0935900843834
61.0,63.39270601051686,61.52172658143894,71.42752890036124
62.0,61.42797936062046,61.23698605539923,72.05619790280294
63.0,59.81154272700922,61.56089427636188,72.32999928703879
64.0,59.39026933631118,62.53341417789997,73.23378357468214
65.0,59.90372130722223,63.89169286720347,74.9926713129967
66.0,59.81320656514911,65.57837214420907,76.70854016614018
67.0,58.80781240883068,67.43035833239011,78.18645284260874
68.0,57.35871615049483,69.18030120951127,78.72901460814262
69.0,55.80918141304967,71.08930819504401,77.64009900478442
70.0,54.7046045691611,72.91791820901912,76.03696816758995
71.0,54.27468291512007,73.03899520113697,74.45839717898028
72.0,54.45885883630659,71.52593140311068,72.75134438245597
73.0,55.14336969517074,69.97705573183987,71.29045293611323
74.0,56.02415297778913,68.8477663118188,69.9236669707377
75.0,57.42250494842833,68.32154796585536,68.9588790682546
76.0,59.4169413738689,68.22253118271648,69.3242150181872
77.0,61.09556140142611,68.24366622451673,70.63231281496303
78.0,62.40519810993296,68.61149692456995,71.65729413497543
79.0,64.01584066468355,69.10966596237593,72.38209090411138
80.0,65.7376004410874,68.8370981106838,73.1728462588576
81.0,66.72730149638356,66.93953021585402,73.6126470600946
82.0,66.6797772918196,64.30183368339635,73.71672374920587
83.0,65.94865354709539,62.494484301304105,73.77421893871627
84.0,64.98310524640125,61.915313503125404,73.74262865250942
85.0,64.07494437992976,61.50380617160506,73.24987543443824
86.0,63.1201769237107,60.48896451869633,72.1189122125742
87.0,61.80671822395819,59.71385547381788,71.08829561387734
88.0,60.83348408739816,59.82461925504829,70.88643719965866
89.0,60.71682407364112,60.49907819589886,70.76442003846506
90.0,61.16394026825136,61.57463712980259,69.82634981383075
91.0,62.11811680040899,62.78185530355268,68.19741827525205
92.0,63.77880949941527,63.95975740937407,66.89098609611636
93.0,65.46786393858261,65.12629730353743,66.94989400969719
94.0,66.30048703631479,65.96219737169994,67.81850009263042
95.0,66.25522019575229,66.69916061509221,68.66636128934084
96.0,66.067274591657,67.84588021941141,69.57346676205822
97.0,66.15217492757644,69.14213927097546,70.37772081996852
98.0,66.73997703497086,69.87246490625782,71.14177737185985
99.0,68.13980027029643,69.632717186377,72.20517190091446
100.0,69.928795883483,69.42617153914533,73.47386942630801
101.0,71.72765784719137,70.29006043056992,74.63239788701507
102.0,73.5801119195704,72.21499789068531,75.49242742424347
103.0,74.89645171428225,74.51161471175486,75.46376468775925
104.0,76.27394796448353,76.5683010098161,75.06158424726345
105.0,78.14859745383445,78.24117542012094,75.40475668058853
106.0,78.73490543973365,78.5160238448204,75.7299877663162
107.0,78.05804208880798,77.06633763812512,75.98884595549941
108.0,77.05969881395282,75.12753349822857,76.40089475719095
109.0,75.30033398935313,73.14350242158669,75.88611522975074
110.0,73.37661834332717,70.91399631012338,75.05163576316366
111.0,72.8969719923442,68.62019342213624,75.20112391086103
112.0,73.7002894174924,67.18583258332716,75.62739235804081
113.0,74.0997515182047,67.23845281183561,75.18791421679184
114.0,73.72220289401888,67.68177209574633,73.68889604302518
115.0,73.38440201200872,67.03951676605418,71.14363148446063
116.0,73.2938258912825,65.80031046901311,68.03791540144363
117.0,72.40425508255433,64.70456970030342,64.68431889834834
118.0,70.44054068946882,63.815641458897076,61.76183602780662
119.0,68.37887885992178,63.65710907282453,60.18984057647839
120.0,66.40381861710691,63.99572531677595,59.61778768263977
121.0,64.56022840064605,63.898445943849424,59.462424123667375
122.0,63.22801011778964,63.50816829129514,59.738109278968615
123.0,62.14710401591037,63.72782665538912,60.284818796408786
124.0,60.55647090894158,64.1490500516331,60.89860624044377
125.0,58.63028875030282,63.774297590815785,61.21075257072318
126.0,57.27032355621483,62.88937022509813,61.058361787798574
127.0,56.734090012601975,62.08029708510805,60.99396028781294
128.0,56.61448876588926,61.68635430613216,61.402577553059814
129.0,56.93655277208614,61.76318171890332,61.87857236386138
130.0,57.68971730468388,61.94758387837193,62.45411120579086
131.0,58.16123591269171,62.20838687356746,64.23132919917788
132.0,58.477154089184225,62.71996984495475,67.28822585987758
133.0,59.04897166139047,63.57122293299871,70.38042914993585
134.0,59.614034604133586,64.7426643777938,72.66060321935863
135.0,60.20602965233838,66.147085133902,73.78299665952979
136.0,61.156711798258364,67.23309690989521,74.18409798744354
137.0,62.497705861954344,67.86577931256434,74.78653989514419
138.0,63.70531105539826,68.64965239704365,75.43549257811576
139.0,64.51258872440664,69.1856991952141,74.76220509947193
140.0,65.0982554149295,68.90764121784353,72.40419001830224
141.0,66.08392231741213,68.48929348290291,69.95527163128344
142.0,67.91740488597166,68.52874384650632,68.2113001588798
143.0,70.05421372891614,68.92723318458974,66.73065627694062
144.0,71.58548793992311,69.38750632069977,66.15265781202397
145.0,72.47880684075433,69.58239945040134,67.025364144971
146.0,73.83118960778933,70.0304505876283,68.72176066979077
147.0,75.71103945356467,70.6233809426616,70.63474101199132
148.0,77.36230365563259,70.5294130955975,72.21078891004846
149.0,78.4496072216122,70.49031316288124,72.95324922493954
150.0,78.83025853998065,71.4184015797313,73.03021270206199
151.0,78.91356875993637,72.87017880234458,72.83008999621704
152.0,79.49530298585815,74.26197391570811,72.33479277487817
153.0,80.53374297021516,75.48265263493936,71.5161576033304
154.0,81.11780396469214,76.50412008524586,70.39506882085367
155.0,80.93210674658827,77.29697342855795,69.1560324160894
156.0,80.47161900968437,78.11420366849968,67.94746418122767
157.0,79.81941640019062,79.19997164809584,66.67817301973783
158.0,78.81809475358466,80.47066855578153,65.73985288809841
159.0,77.66295621049746,81.55290350270292,65.70033427225091
160.0,76.74779587895094,82.54104336709555,66.49355152515433
161.0,75.81560796313097,83.43335731913692,67.09819424940338
162.0,74.88188619787488,83.94353081060136,67.2187426834248
163.0,74.33778128002092,84.01947344192466,67.12664721320444
164.0,73.52464532076404,83.67174670630281,66.44733993919274
165.0,72.48779091954611,83.39958041163672,66.12250051162562
166.0,71.70675378616241,83.51493003247593,67.24717987708658
167.0,71.1587592200157,83.84228484139285,69.53628545535219
168.0,71.30958231466151,84.31589839614493,71.86656911338002
169.0,72.76797862248992,84.71788401143945,73.4986742376486
170.0,74.72721681031646,84.37788706083892,74.72148534313808
171.0,76.5136759637043,83.17857637191352,75.73595147920557
172.0,78.2068370475942,81.69073244393996,76.70829298663463
173.0,79.36982004556982,80.13672465029966,77.45731460991647
174.0,79.93773021058715,78.75526298899098,77.66245712742219
175.0,80.35669201636847,78.0075896540983,78.34385831004832
176.0,80.67268373820782,77.56978192234776,79.40748236269415
177.0,80.53981824030528,76.57984407191853,79.51366755675913
178.0,79.97177318373687,75.16107262500728,78.83056779380448
179.0,79.27115248829017,74.14317078003559,78.48877672323526
180.0,78.42239974541384,73.25591845129027,78.99114125961371
181.0,77.44404030790749,71.87637199044767,78.87694153615
182.0,77.2187978624574,70.73448048621671,77.76997215915631
183.0,78.02604831550465,70.30075025169923,76.71532811938441
184.0,79.21480232745061,70.12350189111079,75.99720952254239
185.0,80.45423312515993,70.07677161637427,76.2262893129798
186.0,81.23169705124724,69.54813277620894,77.31881057804075
187.0,81.0083603404098,68.34973213222179,78.22047382287766
188.0,80.40394885020488,67.38729972364165,78.73402692145616
189.0,79.77184640374449,66.38735358435407,78.38475697015541
190.0,79.35509237542101,65.1574721760087,76.52166241509269
191.0,79.59191786983247,64.21451751776355,73.40264717902072
192.0,79.6720328508232,63.2235207391588,70.06211910806454
193.0,78.61772167402857,62.20396693298935,67.563859416663
194.0,76.42980681582772,61.65860605716785,66.02816912361934
195.0,73.70626435304614,61.84357099534391,65.52864839089165
196.0,71.2574957115673,62.2638240125215,66.06985935675529
197.0,69.69637511317451,61.89915747306507,67.40781850432536
198.0,68.25810706275945,60.43405195846186,68.48360087986302
199.0,66.8525316553679,58.94786967345256,68.35679457780792
200.0,66.07712913152234,58.10469726813231,67.6627985329627
201.0,65.41151186795071,57.42527990568087,67.43373550419143
202.0,64.70232510539599,56.79793157656938,68.16784253057813
203.0,64.32925969928073,56.29527926057784,69.00858440062541
204.0,64.44216307007828,56.06596617429494,69.11687836432702
205.0,64.99645066336998,56.638101486114756,68.8591049341016
206.0,65.54453616020878,57.944689189752395,68.10597222770231
207.0,66.09956248347491,59.27557663251264,66.9882951272673
208.0,66.79002081875944,60.44606702452622,65.82379783667778
209.0,67.35330618553132,61.62458846679671,64.21773356235109
210.0,67.88473760774232,62.70747137314084,62.588155517324786
211.0,68.37957484442998,63.48632077853285,61.701162566288396
212.0,68.29087228324968,63.786934178802355,61.755289659901436
213.0,67.55238213447629,63.82446716448739,62.50216892101668
214.0,66.56687252596478,63.75678126924965,63.12863727645618
215.0,65.46962681524786,63.669703094016214,63.344279937574
216.0,64.41830589004314,63.73602600122505,63.75679043181123
217.0,64.0157181057641,64.50429538829762,64.44484073646892
218.0,64.31448303932086,66.30572786168862,64.69903084758184
219.0,64.50670534497037,67.86555671720282,64.197109266796
220.0,64.8867634403481,68.24881023819464,63.029403570444686
221.0,65.78814265261042,67.93576392852769,61.537257894144254
222.0,66.2272407985156,67.47944427234127,60.31470129599997
223.0,66.27114903448552,67.58454750754184,60.00761605052019
224.0,66.32240499161702,68.26574494394686,60.32142848306496
225.0,66.21928949423197,69.01461382028367,60.31688958795516
226.0,65.70255705817237,69.6995918575584,59.643893520762134
227.0,65.20492419917674,70.20783858128726,58.80863965494098
228.0,66.09941455641327,71.00523824968704,58.79706381821615
229.0,68.12566541088349,72.77773933086516,59.849037428279985
230.0,69.61912157328025,74.55530454433523,61.35349932175372
231.0,70.31203126691015,75.47561998691269,62.671647517038195
232.0,70.83219180610651,75.44734582904303,63.06787045455621
233.0,70.76598127637432,74.30379206843598,62.15074587412841
234.0,70.26406301420522,73.17063345741995,60.64366906012826
235.0,70.34557581254712,72.55586709922183,59.26612984286939
236.0,71.42565862653021,72.12230613351599,58.09127708339426
237.0,72.98224738994608,71.98972352289526,56.84947829721672
238.0,74.0921321426563,72.14828593827316,55.72859022052557
239.0,74.4224372570218,72.14886793319951,54.99083497509468
240.0,74.6305098873181,71.44959579267218,54.61829947229003
241.0,74.87184927666681,69.63557762779799,54.86005528842443
242.0,74.42253481744756,66.83360716872795,55.61910203132293
243.0,73.57582303094345,63.95536556964365,56.588519603660664
244.0,72.73741456548754,61.793173046477136,58.01641665867537
245.0,71.80736323983652,60.875710892030554,60.04861715195927
246.0,70.87027854981494,61.19086036168425,62.32383988699931
247.0,70.11480710159151,61.92234717324166,64.40521197493996
248.0,69.64392345752326,62.49010462346945,65.69449509425901
249.0,69.63596257523062,62.81188812117724,65.98364695185708
250.0,69.44116405866887,63.095334595194736,65.583464431718
251.0,68.69079460887853,64.24004951351395,65.08934150355353
252.0,68.1220883300059,66.43249222661922,64.96603166872994
253.0,67.78844529129195,68.46421582373104,64.76454618261721
254.0,67.7094749225482,70.13685897131857,63.977020875713684
255.0,67.53346663901014,71.71375326754588,62.50916466680327
256.0,67.39575301444448,72.87892807361962,61.12651875426794
257.0,68.19678390868351,73.63213873440682,60.59850446150524
258.0,69.30866880692331,73.93093888442395,60.50226803272613
259.0,69.5355441971322,73.57600783834498,60.17212262153207
260.0,68.74887107090873,72.73885723852538,60.26483988129124
261.0,67.95940725423364,71.72970408897136,61.68132438113432
262.0,67.88814977002488,70.85003782035623,64.04446744190965
263.0,67.8986907568044,69.6775002264151,66.06901890821585
264.0,67.3200121791276,67.89095167596544,66.6594887192951
265.0,65.95431256228701,66.82687442565134,66.1231319256501
266.0,64.20152267534466,66.66138563726966,65.72687124683937
267.0,62.78572862822647,66.65631268890927,66.31416552317873
268.0,61.687639075566224,66.94059286169832,67.47829441744474
269.0,60.90692905032608,67.54592120961296,68.68123917885558
270.0,61.24858060312848,68.74373342359655,69.87633227313749
271.0,63.201492688102924,70.31479087906254,70.3676574607743
272.0,65.78579953245237,71.38503461981605,69.61688621656334
273.0,68.08120427508268,72.05815404129132,68.6477223604947
274.0,69.92673990302343,72.56254498399078,68.27984189534108
275.0,71.27837436916754,73.1994250307774,68.11942445179288
276.0,71.98721086345031,73.78755596824362,67.74159042030915
277.0,72.27590844621415,73.18436381084416,66.94629288566193
278.0,72.24412836706605,71.55627245052023,65.73407873458424
279.0,71.75784418809215,70.50099139192096,64.59677068292102
280.0,70.94516011598321,70.91639207759376,63.886047955094746
281.0,70.65798426617845,72.09442591114038,63.56529197805552
282.0,71.59914404644687,72.67002050151704,63.373911450348636
283.0,72.72422966444233,72.1821378056057,63.03078423770743
284.0,73.11676800364891,71.06048003781518,62.961788471763114
285.0,73.32809655965399,70.33661907231043,63.74737032163347
286.0,73.59297998800366,70.20190907154657,64.74270490624151
287.0,73.76399012944972,69.9257669974318,65.15209483283311
288.0,73.93824402707591,69.75632507742597,65.61188555036256
289.0,74.38129478852548,70.4353377990049,66.54193985403043
290.0,74.77468497455386,71.34703411676016,67.1206161387521
291.0,74.93165357817809,71.74679800848894,67.3418465616518
292.0,74.54278694254643,71.63761597462336,67.53136875169561
293.0,73.03104217357013,71.3779808198548,67.50660324661874
294.0,71.10776608430585,71.3801202037981,67.64505214293072
295.0,69.38908385643307,70.75827290214437,68.25151367060471
296.0,68.0965142575202,69.08548072802961,69.22234588880505
297.0,67.7239660797705,67.82213855833619,70.6457056728858
298.0,67.90329601364266,67.64382330466088,72.47227178044058
299.0,68.13908347780486,67.9662742240332,73.95115482474185
300.0,68.28897397865373,68.58438846158931,74.41657339141423
301.0,68.27197004195084,69.92608058998366,74.15237700503481
302.0,68.48374831225735,71.81996412187864,73.83234230676275
303.0,69.16425390772787,72.83785450304322,73.68465706624684
304.0,69.60867831951077,72.16224833663098,73.07771762903053
305.0,69.6619545966675,70.62004168065297,71.54747740014778
306.0,70.24139776085524,69.25206037180531,69.5146554012976
307.0,70.97716714775981,67.91911712048723,67.70389722344814
308.0,71.19811262568969,66.69131264690101,66.93493162720439
309.0,70.95934458416447,65.61235850402477,67.14965687193845
310.0,70.3663500631927,64.2540466772905,67.74288444845504
311.0,69.60751413965345,63.09771715486077,68.46238295972987
312.0,68.05556639906983,62.47447736744257,68.66576907291426
313.0,65.69968495085979,62.1890742478391,68.19744099410056
314.0,63.75452776154436,61.77391280743591,67.74454215458978
315.0,62.92171907947654,61.21605979348758,67.3141248176331
316.0,63.0435902936617,61.28034939276467,67.09024959914707
317.0,63.24845374134406,61.926595361020276,67.67370293545636
318.0,62.6498488157896,62.28267404532837,68.91930052189488
319.0,62.02577166892287,62.06998283417983,70.35939549476699
320.0,62.38871565356721,61.47865379146407,71.69240581680026
321.0,62.74413589013527,60.765888361833184,72.07544425053092
322.0,62.606084437667064,60.1878268977796,71.2441396678201
323.0,62.81492206919223,60.10335502391543,70.56784735632878
324.0,63.71513946420084,60.791533410315424,70.77778453099472
325.0,65.06231252424463,61.94642174841681,70.60376723743707
326.0,66.47359196885651,63.01073415845137,69.94443091007604
327.0,67.49296783550028,63.72854165580899,70.50509188123219
328.0,67.57071377470577,63.723762269882755,71.4540739867992
329.0,67.17908216143994,63.59967811691819,71.05734510886103
330.0,66.73523922106885,64.44844254905998,69.84099277588209
331.0,65.85918058510653,65.3848082664705,68.36398252979491
332.0,64.90515493582281,65.83969347930775,66.75182715939512
333.0,64.08355735972357,66.64637696231925,65.34089735312283
334.0,62.62369566417127,67.37450372454208,64.11591242391755
335.0,60.55245902745958,67.13707191007401,62.99837566168398
336.0,59.19518914519328,66.4624475474467,62.01462431141131
337.0,58.65318231445015,65.77180527754867,61.07334143980267
338.0,57.893303595677494,64.86432467068089,60.094037659448254
339.0,57.020776701133364,64.33257176758255,59.189554682191556
340.0,56.79431436066874,64.1745747856981,58.94584798655777
341.0,57.27247687369541,63.594107548815664,59.72982270643544
342.0,58.04834275566868,62.887735411010524,60.86382267111703
343.0,58.76404128113904,62.89381390608519,61.45717311803824
344.0,59.02571490358375,63.50146486189282,61.56569537554751
345.0,58.8762662290059,64.27601173187887,61.809015338309464
346.0,59.09921084123919,65.16769512679538,62.32820394026093
347.0,60.0366379299912,65.99208787805259,63.275694952704164
348.0,61.401921709263455,66.85087395262856,65.35790961646504
349.0,62.84908446993887,67.59941411281964,68.01883289846036
350.0,64.11316753817341,67.92730857485024,70.01883613887327
351.0,65.4656802942656,67.83562070010805,70.90025018720033
352.0,67.41271417032814,67.82089606420293,70.71551701337525
353.0,68.81080366850767,68.33295756188136,69.7508506494462
354.0,68.62546919220036,68.55764030840322,68.32456881036913
355.0,67.33670659552565,67.88659794585229,66.7933354000926
356.0,65.84493255312891,67.21053645849649,65.41405743672532
357.0,64.98744809303386,67.93361338504442,64.31890033594732
358.0,65.13498503666726,69.59349725975436,63.29544391760187
359.0,66.12895003093259,70.71227886052667,62.33354064629338
360.0,67.06103783016786,71.11622147436401,62.07384213710391
361.0,67.3612249053103,70.83997072642002,62.37570113704278
362.0,67.70871197560137,69.74231160763752,62.95720654194326
363.0,67.86373563300599,68.23432527205394,63.454431631700324
364.0,67.28932628225289,67.04454054461142,63.578604986923764
365.0,66.93520910813291,66.77186417959444,63.82804861382804
366.0,67.07127239312076,67.18707138499184,64.26360379431823
367.0,67.2178775208741,67.8288501943495,64.37874311990134
368.0,68.01866294664846,68.36556587700584,64.10917306986819
369.0,69.57710989615683,69.05695633797724,63.87610023867147
370.0,70.87537274697823,69.7514074187435,63.91666506561815
371.0,71.28779746450446,69.82042057008495,63.92831322166842
372.0,70.1387751556631,69.4185873486872,63.723514560638215
373.0,68.15183083936849,69.03766743990766,64.00479336232159
374.0,66.90575171109155,68.75987077970973,65.1095885521772
375.0,66.59704890676328,68.44580639666289,66.2014938131866
376.0,67.08981827999392,68.4884565809429,66.99081089824772
377.0,68.2042667774406,68.79419175152184,68.1427137394038
378.0,68.7348722344555,68.4002322165141,69.28408113607611
379.0,68.00327196877814,67.07908619865799,69.59140287574348
380.0,66.97233244098935,65.70106319794318,69.43825465766142
381.0,66.2020549325024,64.80175154532094,69.80249445992067
382.0,65.53922962439053,64.76490913063203,70.20650824739026
383.0,64.80740719059422,65.62513939039886,69.38578473121179
384.0,64.07214487567691,66.89836642128026,67.80596880251706
385.0,63.45138086539838,67.65719346431405,66.12155644706795
386.0,62.6755257809778,67.27297458185127,64.00700012746219
387.0,61.81361888297395,66.00398242480857,61.85208945502902
388.0,61.365850939499055,64.19250347804619,60.53214291491993
389.0,61.20363974389851,62.23763932423816,59.82888702265573
390.0,61.12613650864868,60.13583615727638,59.14910479768725
391.0,60.818030368208284,57.85304812211437,58.72292142835462
392.0,59.7683816727317,55.609561588053715,58.45440377475633
393.0,58.7920912770434,54.11709152723681,58.03049503708845
394.0,58.48986777805463,53.3919075825491,57.94765602152772
395.0,57.9843877723924,52.47006925268507,58.499354848994756
396.0,57.715066685528875,51.27141165075031,59.43107207402493
397.0,58.281596757682266,50.22085412521332,60.78496995743405
398.0,58.9065311048716,49.793175532512294,62.58572563544448
399.0,58.983590068822004,50.41596375356587,64.3564560280015
400.0,58.673287027443685,51.75940344047785,65.6226866283229
401.0,58.26836237566452,52.95779709007558,66.19420037742172
402.0,57.657029379314096,53.21699758607263,66.24139651528705
403.0,56.882634191572066,52.998641241376994,66.22429489017821
404.0,56.031534763277406,53.578108311060205,66.23917313619344
405.0,55.146894663688656,55.301235193849216,66.29222065766932
406.0,54.71658352672476,57.02076815720088,66.10807713814002
407.0,55.006689793305924,57.55452857319186,65.46672440670042
408.0,55.963199120748804,57.261128243909575,64.77568511963918
409.0,57.62246024038423,56.71944113535596,64.09361597591143
410.0,59.881384887089304,56.04655632840404,63.18344344440959
411.0,62.07735148394893,55.16278432674615,61.811395120469065
412.0,63.749364569112814,54.25776449457412,60.43777116189011
413.0,64.76020527576681,54.29832638380185,59.92103537745824
414.0,65.36706954725433,55.251474573037584,59.93903128501927
415.0,66.08950595226756,56.1417298863256,60.35431412495623
416.0,66.50553227085764,57.09439690615322,61.28325326260127
417.0,66.18030058001929,58.21650218481279,61.988497878839524
418.0,65.54459651216834,58.664263993164276,62.210640007753966
419.0,64.92975091393633,58.91287533586129,62.359351892988485
420.0,64.17468056261717,60.19450903975889,62.79724601193156
421.0,63.26300012581638,61.93234640970366,63.69375911750716
422.0,62.20246658913862,62.70642182698114,64.72566745329127
423.0,60.65613564050281,62.21684370036598,65.60726235788732
424.0,58.837257146720916,61.275222052780194,66.18712510275087
425.0,57.19177427081962,60.73684885858728,66.67832328353269
426.0,55.58937905266452,60.65364638576186,67.66787946508275
427.0,54.50104131664324,60.84119551168503,69.19431194437767
428.0,54.39780148877687,61.16699316697946,71.02936335215375
429.0,54.871214511649235,61.401624681482204,72.45558119913893
430.0,55.3302776856904,61.969021244917094,72.51031266272135
431.0,55.48863120442577,63.471538580564534,71.39342255469221
432.0,55.175459945030816,65.37125008610417,70.13375436212674
433.0,54.754341065805086,67.07192090869792,69.08309677159048
434.0,54.88133235916567,68.12748820267632,68.62096238630438
435.0,55.3997798648112,67.97765066408462,69.06218611355972
436.0,55.94625847405283,67.16722814107082,69.60168495091732
437.0,56.8897403476224,66.54865644946135,69.49846415669967
438.0,58.04425525676376,65.94912935731693,68.59082015070244
439.0,58.03341720818583,65.46265663006012,66.585409698771
440.0,56.98771442425831,65.86695748705851,64.26616001580041
441.0,56.50716470326087,66.93710133750555,62.833580858592875
442.0,56.99194089424482,67.9237895149772,62.40887697890311
443.0,57.6391343869293,68.40110249220668,62.15624457081685
444.0,58.24706529760893,69.23932466017743,62.03044933935142
445.0,59.35213019617931,70.99846549535606,62.42616728683345
446.0,60.72522896618059,72.11698240549387,62.373003063713476
447.0,61.820776709912934,71.78771499300404,60.89625977204081
448.0,62.391495935321714,71.07583198784678,59.02706498923482
449.0,62.28359689393503,70.56962664067545,57.966865305735375
450.0,62.10129608843203,70.004948657294,57.50744934867021
451.0,61.991978843569456,69.09719423049444,57.37324703848923
452.0,61.51816116679141,67.91425326156327,57.637683682744296
453.0,60.71434490120056,66.70430310653828,57.99904151900967
454.0,60.24597681812708,65.68377776632569,58.22532630287468
455.0,60.667019240034875,64.64098649302387,58.313790219999596
456.0,61.82132482218643,63.35297057016079,58.53380921345952
457.0,63.34372983718641,62.02289359512119,59.44640580831286
458.0,64.69477323572941,61.08184998476671,60.81065157099388
459.0,65.6635903956267,60.73770076272259,61.515269447245636
460.0,66.6359633432374,60.791454694820914,61.207713131743816
461.0,67.47935277436768,61.19763139145489,60.451815482594526
462.0,67.7275794630473,61.85695418136519,59.47161528693555
463.0,67.27381230107065,62.252197918165,58.181957248961105
464.0,66.69266433608966,62.477696043514655,57.37756291779599
465.0,66.4527973634484,62.6239817733709,57.6010817890895
466.0,66.32414027056159,62.5089418881549,58.69339514565995
467.0,65.89037504368385,62.0522753708137,59.85543796086841
468.0,65.24797670813773,61.33922720774644,60.57258494343073
469.0,65.12419883877361,60.60803043686796,61.13048319348956
470.0,64.94617535993456,59.76721257360258,61.33038221594382
471.0,64.06469254565359,58.74155631539434,61.29297811207519
472.0,63.35178113217403,57.67794067113091,61.41599192749083
473.0,63.094174917659686,56.518947453026264,61.6395575385892
474.0,62.78104081743903,55.54987785493076,62.1817953798518
475.0,62.36662985441011,55.03043190442597,63.17955203657027
476.0,61.84743442473893,55.041587321339996,64.3605915728888
477.0,61.10878076382135,55.634392794194646,65.30276348319126
478.0,60.22806958038236,56.22411910171183,65.48325273797892
479.0,59.80615791460198,56.55318747152463,64.90334032387072
480.0,60.285294270922215,57.23934371870498,64.05594904010475
481.0,61.420953410668815,58.11967879556221,63.3586089015621
482.0,62.62463558792364,58.701793806008205,62.74673325975473
483.0,63.65708794789639,59.4807922583345,62.151893807796945
484.0,64.39300310171863,60.488412962316524,61.93699545135234
485.0,65.20423079194588,61.29369680800594,62.618935220707826
486.0,66.58385629733502,61.93883194921539,64.24757367301874
487.0,68.00791876123368,61.97078712632309,66.02256871312707
488.0,68.96296124046675,61.199719019968114,67.18989671574249
489.0,69.28744417566583,60.360801194752106,67.46570760576908
490.0,69.1387880578448,60.189368916539195,67.51734138915744
491.0,68.8450855351223,61.00257033291755,67.62405144187768
492.0,68.42408664402026,62.77066729440506,67.35885913439427
493.0,68.12220240392776,64.87444317151821,66.84060191460568
494.0,68.12434326255247,67.00476955235341,66.22289585640205
495.0,68.64231134750152,69.07557682377178,65.30776044537559
496.0,69.53681249523409,70.41821114673876,64.18675836312403
497.0,70.17367425685855,71.16171107591215,63.47081612279997
498.0,70.02297907948714,71.83845038687774,63.160927217593844
499.0,69.20196638621326,71.79125609165112,62.167433573467235
500.0,68.2401322976133,70.76953314017179,60.46957365310304
501.0,67.69670307210951,69.315467556974,59.31923274233346
502.0,67.18834118596867,67.61218363682117,59.01725459229687
503.0,66.2084564854967,66.1299453044155,59.20316504537225
504.0,65.4327133876207,65.66576572405441,59.92129031762655
505.0,64.9898236913566,66.48939837121004,60.97090002043074
506.0,64.53482657616317,67.95108730838582,62.437739570428384
507.0,63.947182994911415,69.28054609911433,63.85069806540514
508.0,63.10274620071404,70.08777824324861,64.71182963976345
509.0,62.652936127887095,70.72704113010377,65.95893925687334
510.0,62.941456176581156,71.30421898419122,67.7709306313381
511.0,63.17873515451146,71.04115256920521,69.3838525517201
512.0,63.59975458885286,69.53430312948052,70.61431188912532
513.0,64.64662418074204,66.80837064357651,70.95691794230875
514.0,65.99215680138569,64.1581169216737,70.43448677010409
515.0,67.82192277316807,62.60772349529667,69.77096769692314
516.0,69.99219237271596,61.70156939509991,69.29729288310284
517.0,71.652081498093,61.25344322819358,69.1542417938826
518.0,72.39160817561701,60.951032716754405,69.11105444469503
519.0,71.87177807286038,60.59303296419909,69.03598521910986
520.0,69.95678612597119,60.769873811744425,69.13995361822035
521.0,67.66332440778203,61.89645786633431,69.45565319549658
522.0,65.64510653030966,63.767405281870744,69.62618702326695
523.0,63.85617648780119,65.55721943672373,69.40002430366053
524.0,62.697699484972745,66.462062639391,69.57814853731557
525.0,61.935375358568166,66.3566670951658,70.56714236254771
526.0,61.17437310942817,65.82428396890727,71.50070756714436
527.0,60.97614009717473,65.76314065135992,72.13226586153942
528.0,61.53861017728144,66.14012029833246,72.41052860934546
529.0,61.98047103292205,66.03598956573282,71.89743584887333
530.0,62.20447532611435,65.60873976876638,70.79849428369927
531.0,62.696515958563445,65.57350913340629,69.81028920666056
532.0,63.16042881412596,65.33312733768784,69.03619157421753
533.0,64.01288513518968,64.8095487196435,68.71311657827569
534.0,65.37394959169929,65.04495587431477,68.75286227033115
535.0,66.30997834768516,65.54643429311359,68.31067797149164
536.0,66.88476551378692,65.32109189045755,67.47288719857083
537.0,67.90370203347176,64.14951950001723,66.70894407813094
538.0,69.29233351929534,62.17164578854477,65.95246286828959
539.0,70.17388268110021,60.50654142860262,65.23685401925543
540.0,69.78781266347711,59.705389100123725,64.10352304760458
541.0,68.25917211034941,59.21156842238883,62.6780882826797
542.0,66.25541225339646,58.93435093365864,62.03556889129302
543.0,64.00061012685167,58.94637444510869,62.05147446254112
544.0,61.85675375771393,58.772207127679444,62.03781758984769
545.0,60.339791425036985,58.485609379102485,62.04043343202813
546.0,59.53701986324281,59.17963256456044,62.22878779800766
547.0,59.197986864474416,61.314066164519176,62.86748682786743
548.0,59.46053915678257,63.94566273437756,64.4152806430507
549.0,60.409977250467335,66.66501671320843,66.32322636013362
550.0,61.662928112947995,70.29770062203193,67.93059550491648
551.0,62.97911935861111,74.28179626905154,69.20120134210718
552.0,63.7627507294327,76.60672717069744,69.4811530246751
553.0,63.5460061118859,76.81874302431399,68.63737734418875
554.0,62.65268442119112,75.67897817317431,67.2176715455303
555.0,61.314714104986514,74.1139811369921,65.41520356994637
556.0,59.929523546141375,73.19790781003796,63.91251600756061
557.0,58.677388835019094,72.16463178145942,62.883083548124944
558.0,57.69771396713885,70.29109594610293,61.967217057446994
559.0,57.4457519089755,68.75444678358971,61.45733220555401
560.0,57.94593339354906,68.3759723570078,61.51505362342471
561.0,58.87342525778378,68.53129444267785,61.52211044932478
562.0,59.82579052295583,68.3966513219407,61.1789574929493
563.0,60.57681258612129,68.13236485539903,61.076389270101295
564.0,61.097627631137634,67.61320966482296,61.165536931841864
565.0,61.22429085135142,66.52410795102092,60.75724974435554
566.0,61.55207085536773,65.47802815267116,60.61109214113128
567.0,62.546642518243914,64.29250891073363,61.800642049662464
568.0,63.22722625956936,62.459812189260944,63.96493786978249
569.0,63.37181160169421,60.53078311303784,66.03730060583477
570.0,63.96214444801715,59.59633578215519,67.5839941082021
571.0,65.07819779678913,59.6736212524992,68.54687869212458
572.0,66.12436006801315,60.229013976213935,68.60295964010216
573.0,66.50812984552793,60.74685468063037,67.64572811732705
574.0,66.30737780919017,60.92222009633413,66.26309839196645
575.0,65.74172284843182,60.84824595569753,64.67599713380993
576.0,64.83538761426395,60.71957168211714,62.888501660550816
577.0,64.29548146014439,60.7258536273893,61.88277704537596
578.0,64.22125787013361,60.5899550554499,61.62272556079243
579.0,63.762127001325936,60.05809707845977,61.45052514805767
580.0,63.35343075163064,59.437597199775304,61.416520535209386
581.0,64.16729698427905,59.3489284033359,62.01762526577726
582.0,65.65644454847073,59.902892675711286,63.317910230986556
583.0,66.35867892276251,60.5134358946362,64.09177514149711
584.0,66.58854768866021,60.90286185651562,64.13883934092254
585.0,67.98581551565962,61.53394535894833,64.5835585773418
586.0,69.64276835678926,61.90231653549792,65.34937863691266
587.0,69.6700650262342,61.26266336255425,65.40864602194225
588.0,68.9583722928948,60.494427138515334,64.38550678336324
589.0,68.9091718568791,60.53953972618381,62.84199189057281
590.0,69.33825965549386,60.82373920247308,61.33900000929675
591.0,69.68495117698932,60.37733732218595,60.3150546954958
592.0,69.7531596187345,59.7431205160557,59.99891546849022
593.0,69.62418342986258,59.291277997966375,60.139920835977726
594.0,69.79045470898212,58.922025494401154,60.43845846200579
595.0,70.14621012696288,59.3842398563389,60.752253464212096
596.0,70.09554447103955,60.52510849190513,60.92432578620446
597.0,70.15431016355875,61.73453236438392,61.30627678253287
598.0,70.64882797115291,62.44729535928131,62.01235898120331
599.0,70.85701921469852,62.34449765530008,62.42073659302079
600.0,70.68219254003928,62.2806865061747,62.64395674648778
601.0,70.47625943741492,62.33519617409171,63.30311335074882
602.0,69.95578489010188,62.34791947678593,64.03609508004496
603.0,68.93225145010618,62.8230328848548,64.65876257612204
604.0,67.86766886170486,63.64146766019771,65.6610722029263
605.0,67.38848411651223,64.66789166337968,66.74112907714006
606.0,68.26223957041358,66.01220694976033,67.02146215442905
607.0,70.50752255687094,67.53923910857544,66.60713814936369
608.0,72.70747657363708,68.78470090253143,66.2252742573569
609.0,73.61405139255358,68.91912783168544,65.93019676258935
610.0,74.09895666673728,68.07446413117485,65.69472963509989
611.0,75.4801602724459,67.8232698719424,65.79782089059671
612.0,77.24789795840195,68.63084850056903,65.77777971102836
613.0,78.06748844249827,69.69781492668943,65.48729365175262
614.0,77.53292294584213,70.42108062365085,65.29097350466799
615.0,75.87619060449227,71.03490308363368,64.78576255805692
616.0,73.70890741469967,71.94711583747707,64.24633350239787
617.0,72.28662207952372,72.83874670726217,64.801532858191
618.0,71.62279585442664,73.18042932018331,66.21050998237644
619.0,70.87814311836341,73.0974937602459,67.63580651512318
620.0,70.36779264121539,73.4549790195362,69.4713257967405
621.0,70.27522249227938,73.93933323449583,71.6842680495748
622.0,69.79414881221958,73.50215166119328,72.50757473865863
623.0,68.99463998641437,72.13804571665338,71.08246770803544
624.0,68.02179973365186,70.32395285987533,68.20008077607659
625.0,67.08319679807583,68.71739770387029,65.19472056806754
626.0,67.16891414524993,67.75613232089769,62.51829424651073
627.0,68.3882211732465,67.08851292274137,60.12378100706083
628.0,69.67079185625063,66.38783136004184,58.489640730096156
629.0,70.43761113667414,65.18480161918197,57.915773362883456
630.0,70.21675030180599,63.538442635522266,57.86241347094465
631.0,69.0081141466711,62.73644399308873,57.98462786804633
632.0,67.58173014866216,63.007191190585566,58.2909239887524
633.0,66.37962387917243,63.360020084293765,58.62345559792065
634.0,65.98430298348347,63.39815961745149,58.8243531957522
635.0,66.35527459069037,63.03997978638907,58.967717172908316
636.0,66.41854649482939,62.547503361678686,58.975570611774195
637.0,65.43235130187287,62.301566955319956,58.77088155167244
638.0,63.806382907674546,62.16691120979498,58.708090818243576
639.0,62.27958622262625,61.64302009338824,58.75095227439435
640.0,61.34217337855158,60.58099325119993,59.00681776244379
641.0,60.63923939885078,59.3361104184287,59.451245307105786
642.0,59.68237568527244,57.977638711185904,59.78796350210156
643.0,58.65465110073581,56.931853176100155,60.00832422254419
644.0,58.005889711261936,56.57533326742668,60.28721763182837
645.0,57.910614912938605,56.27259718672315,60.82817826525029
646.0,58.243945369158084,55.473227993466594,61.49804686894701
647.0,58.574665193134955,54.54654886962032,61.97490763199167
648.0,58.28770855737498,54.28771184162469,62.534159823488274
649.0,57.726968347039254,54.710800211181244,63.672040545216205
650.0,57.16110630788683,55.18494045092261,65.28242849163424
651.0,56.7134349020963,55.436445380621464,67.05845367126088
652.0,56.6465739514232,55.597906201635965,68.86640719058799
653.0,56.533602770632164,55.37319539572213,70.31884649690377
654.0,56.55802209037069,55.076827858383126,71.09204465269904
655.0,56.77714756204955,55.23503674958981,71.074538457146
656.0,56.67070093552871,55.195456510865135,70.33657717581927
657.0,56.96379293863259,55.21363849114261,69.40959303382783
658.0,57.6765355108417,55.712877433973965,68.01831306174017
659.0,57.85181865216321,56.53084831946287,66.00263009868908
660.0,57.49778546943247,57.85225736666941,64.4536773246261
661.0,57.13125470301657,59.98223507501064,64.07038656916484
662.0,57.40437829485352,62.38910284208479,64.66753378375678
663.0,57.86351831436178,63.65259438181164,65.86810597550402
664.0,58.06726385547816,63.28767488236557,66.81570309237577
665.0,59.048660807897235,62.05350190198709,66.91729786187618
666.0,60.8633563222951,60.893675034345456,66.42049223087935
667.0,62.435613630528934,60.02767298386945,65.65460833794789
668.0,63.794976197456386,59.74398699459805,64.62939362790722
669.0,65.68070419904852,60.28092029394672,63.52983837135682
670.0,67.69955371020167,60.95121364132851,63.454807886377544
671.0,68.84103204008733,61.08416429581493,64.42036621152766
672.0,68.87391856508532,60.78631851916951,64.59504226400774
673.0,68.6239670506191,60.23974859946173,63.58165927303867
674.0,68.52904839832567,59.358826961363626,62.399909216397766
675.0,68.00781641109647,58.04746598195084,61.04265148775134
676.0,66.55291847014615,56.44633429817829,59.46185743346705
677.0,64.63793963461268,55.09672071313522,58.15319420674825
678.0,62.63240364796009,54.03842934586647,57.11371753661882
679.0,60.51358722451431,53.06729365016825,56.32648539660775
680.0,59.42964468856879,52.73918966713615,56.34110757281567
681.0,59.662135733921964,52.96441692985856,57.18174147500603
682.0,59.84031979468679,53.309275259146006,58.42748121217654
683.0,59.32815900548191,53.8043048218897,59.49451566501584
684.0,58.34440745173068,54.41942403770619,60.30759499750843
685.0,57.546277704678886,55.48066389366836,61.20691464928826
686.0,57.39422356590903,56.69356387079134,61.70486363024268
687.0,57.75906422049702,56.88445213636472,61.24857974405604
688.0,58.72330710935663,56.83828082424257,61.0607408054559
689.0,60.289893879212805,57.69476073749585,61.86331766979759
690.0,62.14553026245694,58.45464873608318,62.56640614753437
691.0,64.10056852269317,58.46027853121351,62.76822051918118
692.0,65.89008059361439,58.70851287921192,63.18538084125479
693.0,67.30024238016486,59.640825361807764,63.319051343397064
694.0,68.74808455643588,60.9790246770691,62.38163690172954
695.0,70.08800945083944,62.428149814413715,61.06680828374065
696.0,71.18337052466123,64.11715441592116,60.37364541200476
697.0,72.66321411840529,66.1849927215163,60.84601417970341
698.0,74.36856236192145,67.5773974069968,61.805575911177776
699.0,75.56654214871557,67.38313211595948,61.942156802332
700.0,76.1441269637579,65.89111893026019,61.29073613755841
701.0,76.34697466664855,63.86437300879305,60.726687680471
702.0,76.18542807693231,61.94046750591984,60.933770440811145
703.0,76.05126770480992,60.28879067005774,61.956544824558
704.0,76.20259863360948,59.11769262917643,63.135090815728994
705.0,75.60115930526403,58.54754514942738,63.978717934912574
706.0,73.72714665677822,58.75549919053133,64.02813444749376
707.0,71.2471232584998,59.617541345721094,63.01363237960625
708.0,68.99086922999388,60.73885642553783,61.44799103896555
709.0,67.22987597858844,61.22150588679777,59.63910526885589
710.0,65.98246568485685,60.07484861496077,57.50339709277642
711.0,64.94416606041199,58.11466970080019,55.46949130465397
712.0,63.49262762147336,57.22677424486367,54.3269261303277
713.0,61.841616454058595,57.42457073322099,54.497118018937314
714.0,61.0705494820803,57.9973436904473,55.96356937234588
715.0,61.62717809375662,59.09483332832501,58.086643722325476
716.0,62.806459880033486,60.195137902329236,60.193074077746424
717.0,63.93253300409114,60.753482444974445,61.9755657664569
718.0,65.00136601400173,61.01998853530938,63.40593194987348
719.0,65.72790726683503,61.36760705417622,64.87881461952377
720.0,65.90772775489404,62.24050050793535,66.73401933046436
721.0,65.94217112637831,64.05209402838058,68.86998799952113
722.0,65.98998023984366,66.75131164763502,70.50389120486909
723.0,65.42788651075101,69.39938471860212,70.63106653439023
724.0,64.05052006583215,71.13382016899212,69.96366233239031
725.0,62.39393301485967,71.79599027120616,69.94556460055232
726.0,61.2910263582259,71.48645438831578,70.74085815519337
727.0,61.161340927752256,70.65305020693356,71.63461104558296
728.0,61.55100549026236,70.06806840289684,72.10214180505722
729.0,61.72923821875132,70.43346648165027,72.07082112907653
730.0,61.63115657701267,71.97169494409407,71.76024129388136
731.0,61.9195864029434,73.8840411669854,72.16479313229848
732.0,62.899195432575844,74.99350038559527,74.06488506893486
733.0,64.16120906814814,75.5067437190295,76.5149779417849
734.0,65.00667003323822,75.26034237604362,77.42671203922524
735.0,65.52722602208249,73.69209562740177,76.65868683358035
736.0,65.998354011023,71.5070282357701,75.61173032314619
737.0,66.67437834741327,69.86232612021547,74.43096006976886
738.0,68.14994385394465,69.42012752278865,73.53486769635035
739.0,69.9596394565849,69.49221243696961,73.25981426967478
740.0,71.55532744408809,69.03201888825362,72.81817766721998
741.0,73.0428801699517,68.3605105554677,71.82373561345975
742.0,73.505129660586,67.97224944792312,69.95445756485432
743.0,72.0336357338462,67.7817198914309,67.96124903752913
744.0,69.33475246137786,67.43387627382334,66.66229195041605
745.0,67.16384827831905,66.55016660090105,65.62972032765138
746.0,66.09523878578891,65.24696057611379,64.81824705702991
747.0,65.44034207015484,63.96543488734346,64.1628953463018
748.0,65.56489819720717,63.189242354710345,63.48818133316907
749.0,66.58517781768711,62.83964021190654,63.086964280074255
750.0,67.80463628527238,62.696803606962156,63.22945286364993
751.0,68.95367257234354,63.32001155568286,63.80736833973108
752.0,69.61625167723362,64.58112616152408,64.22650026058166
753.0,69.2461032683729,65.17058080816079,63.961807890115594
754.0,68.35866403613858,65.04659797877213,63.57525361711351
755.0,67.52711695420417,65.28887238476885,64.00049999651698
756.0,66.99223995592784,65.77419718779903,64.65668509918498
757.0,66.75888803060181,65.93686488620267,64.48631165203327
758.0,66.57483503498807,66.44380556064347,64.18544161182841
759.0,66.86918016585909,67.94652743554586,64.56794790890044
760.0,68.06734430131365,69.77853529249349,64.93485362364562
761.0,69.45352252234265,71.00190077856455,64.69352074165066
762.0,70.07837997748655,71.54000134172833,64.21288518811888
763.0,70.1971976564021,71.8021592251357,64.03123275206573
764.0,70.21792125814802,71.62610086790963,63.9597866508676
765.0,69.64243101057149,70.6760757062832,63.841960923910094
766.0,68.62458304377492,69.47703613758011,64.1970827230306
767.0,67.15017796879636,68.5854011150972,64.95870298564981
768.0,65.4413924226888,68.15303781488842,66.22311306267703
769.0,64.28531817875441,68.10808500492224,67.75855620586256
770.0,63.74135339950972,68.3904007615627,68.92690495947589
771.0,63.846051034790314,68.9101173862398,70.09728360237266
772.0,64.52095898710556,68.9520618471384,70.89377023740255
773.0,65.72612149816783,68.26848524622679,71.27368694995978
774.0,67.3018147548037,67.26798495793807,71.66762075687765
775.0,68.46256423738524,66.07784175187268,71.62916344142606
776.0,68.77991086313635,64.6655379931044,71.10707815141546
777.0,68.972541400753,63.32785174938576,70.33443290851419
778.0,69.48835290492694,62.60307490643778,69.91863573831068
779.0,69.83634176591247,62.1457129893791,70.00411624312248
780.0,69.98757637714262,61.635381690805524,69.91781056214583
781.0,70.20837819080137,61.240200465611395,69.8927498593725
782.0,70.2735122976168,60.657057867661834,69.74044469319776
783.0,69.7438337261076,59.90584516234513,68.78857404934843
784.0,69.03793801759768,59.16588586443483,67.61308958191391
785.0,68.48783214060141,57.94510042115718,66.67259111195355
786.0,67.676610626778,57.05605166166649,66.08806676926389
787.0,66.73063442981423,57.54441292157669,66.04449749498139
788.0,66.02400036393249,58.83888460061938,65.80128550340132
789.0,65.59566275085628,59.93838316309501,65.09622827277019
790.0,65.3982432468943,60.51195006843968,64.2903394651434
791.0,65.04412625022104,61.053557125917806,63.56142076460133
792.0,64.34718009788317,62.31492930059822,63.12367741730677
793.0,64.14213349463218,64.30026303895072,63.35569040955681
794.0,64.57617198512906,66.21134207790541,64.08203773655661
795.0,65.38479209728382,67.44513075964404,64.81690942128338
796.0,66.74943989853962,67.99050665164724,65.05923853123275
797.0,68.82892615148717,68.20804352071168,64.8308313060839
798.0,71.44659655798701,68.36247460009025,64.5620260425989
799.0,73.77084696109152,68.0687184908426,64.22871603208698
800.0,75.00803703024413,67.33638402637435,63.50020760217532
801.0,75.12651091437256,66.63478953635698,62.73401208861242
802.0,74.39438623021505,65.9089741448342,62.197022268494166
803.0,73.17831172990309,65.13318598588795,61.95516665251953
804.0,71.26833839132978,64.41991064521278,61.84962621708605
805.0,68.58156559814935,63.81847683657759,61.52455048763097
806.0,66.57322470075353,63.60812102114599,61.04512795688101
807.0,65.7470670373803,63.45651573069937,60.52995308374422
808.0,64.98137194930025,62.850877285969965,59.857575435915905
809.0,63.84656244872491,62.34478151946073,58.853042197484555
810.0,62.350577449679406,62.64287760475419,58.22820756472887
811.0,60.78228332516359,63.221526135114765,58.40579043043172
812.0,59.65435234837766,63.394853185872385,58.96130841310351
813.0,58.79827922566762,63.040437600153915,59.73159141009359
814.0,58.16745417071167,62.37627595870475,60.73991310393641
815.0,57.963103989400764,61.58919975992777,61.63873183784786
816.0,57.83256491057101,60.915295526146,62.211203422090314
817.0,57.117321729388074,60.8915055823048,62.637431629394705
818.0,56.14663119499293,61.60395418908015,63.04384398567236
819.0,55.8542215386898,62.27632671826776,63.632622669797726
820.0,56.294412466176276,62.24355763637836,64.97655198596435
821.0,57.10496011429455,62.5211410995236,66.70417157020859
822.0,58.32802688336023,64.20847826644608,67.4742255344641
823.0,59.86413376913688,66.1434553011875,67.17902211623186
824.0,61.031120427673876,67.1958240079276,66.73167457127566
825.0,61.49371700874612,67.33317873816551,66.98234342533631
826.0,61.404540640213995,66.51233082346295,68.21934355344123
827.0,61.39315697254399,64.79522574315608,69.88177745982972
828.0,62.1327785214494,63.08035129019548,71.15840376480384
829.0,63.469466457139234,62.28191772499052,71.76753897296986
830.0,65.15216375547766,62.35934411005721,71.70046495205287
831.0,66.68229360785591,63.01183849525195,70.9000827756517
832.0,67.98997095166764,64.27395194142376,70.05013362144018
833.0,68.90002435563387,66.12063828379377,69.71876610434956
834.0,69.00797297738261,67.98391669088434,68.85863034145116
835.0,68.92071578445301,69.55189169657828,67.00485897311964
836.0,69.28453700306649,70.42224851645838,65.61116412538789
837.0,69.84571616291466,70.16020317620811,65.50741148809482
838.0,70.05345733394208,69.67244197500347,66.1075983082761
839.0,69.29861065279553,69.67358954315301,66.84717980532298
840.0,67.66597694750847,69.76262991361511,67.57516233348534
841.0,66.52789121105998,69.43116982834039,67.98776602303725
842.0,66.48218210107915,68.10523490643891,67.61284870899783
843.0,66.66275548888501,66.41942826002433,66.63346343297576
844.0,66.3697015638608,65.56602889198865,66.15216200173589
845.0,65.3834566740289,65.51825382503974,66.89808025743896
846.0,64.12904696104988,66.22142512911878,68.13577710974374
847.0,63.870126547462206,67.6882250561886,68.49061293524461
848.0,64.1821275574385,69.19385135828928,68.44439724403342
849.0,63.71436776416431,70.02289801477404,68.8707748979612
850.0,62.72732433839418,70.02118645214634,69.55905436039959
851.0,61.963089490725054,69.66512993465469,70.35095095200359
852.0,61.25398941692895,69.17281158599114,71.04085108661923
853.0,60.24334374117658,68.29662088362656,71.55897734624814
854.0,59.835335827183265,67.7491423713963,71.96648670480333
855.0,60.57690731884338,68.23912411995268,71.47057768042677
856.0,61.48339322709904,69.38338959567203,69.72558026400701
857.0,62.32258344133084,70.98933777311585,67.72558329661757
858.0,63.54857188731964,72.76446352314397,66.04636501296199
859.0,64.57410475291012,73.67070109320214,64.48668684812657
860.0,64.74800746377261,74.05012900472596,63.16240530686179
861.0,64.56811896879864,74.32491526651184,61.965848416428315
862.0,64.77628812543736,73.60883700777141,60.69110515815921
863.0,65.12477280064476,71.57056114795776,59.713655783161045
864.0,65.30942807549138,68.78358071088253,59.366401522383335
865.0,65.63010356431418,65.42982103557368,59.41047713847733
866.0,66.27812314814331,62.47632851220304,59.85888868572427
867.0,66.99844900227785,61.04523616241832,60.74220754781257
868.0,67.65568691313433,60.9002186852976,61.76022625344765
869.0,68.48810997145456,61.28856425057724,62.946149982888144
870.0,68.76390450736004,61.72049947443049,63.881002971170744
871.0,67.52195558385876,62.722636013463166,63.995686134305146
872.0,65.50985569000404,64.4283692868043,63.82147887267512
873.0,64.18554335859638,66.20792852017415,63.775106624386154
874.0,64.58940400445255,67.98733593138333,63.836763178691655
875.0,66.2146351719324,69.35156222845997,63.90973536850464
876.0,67.80210097975649,69.0565998593877,63.992649409003974
877.0,69.42017552267554,67.28976219488443,64.33568474741165
878.0,71.75494595673933,65.5397926934666,64.8012131928736
879.0,74.0697864526858,64.58925574146163,65.1964233007494
880.0,75.45802864872654,64.28308540347727,65.61305019442577
881.0,76.49931320007325,64.04449270567834,66.0015533101796
882.0,77.17137062849851,63.311840784948146,66.06600779173574
883.0,76.9624596261745,62.25162779946495,65.47305267515371
884.0,76.45469548525323,61.27077668300705,64.51342272950136
885.0,75.55837542438942,60.73087459936175,63.42407646441374
886.0,73.81812525506908,60.873356079311996,62.35899917326233
887.0,72.01337580762998,61.6376168379221,61.90308362481862
888.0,70.98229489585916,62.730248222018915,62.75269424354535
889.0,70.79159231530103,63.74642692235192,64.2942039746628
890.0,70.93411943992619,64.4430890751394,65.08620129137353
891.0,70.13203327641236,64.8266596606041,65.2452122215966
892.0,68.33172980541812,65.45298363167888,65.74231710902833
893.0,66.67378322160442,66.72639765907209,66.94935856172863
894.0,65.1105699801974,68.32894243817144,68.74697554583497
895.0,63.44655186585605,69.93778778723564,70.68072407666875
896.0,62.02849936148631,71.4261481821931,72.85094837466667
897.0,61.16662617495189,72.83753487141112,74.81343010766943
898.0,60.43223489990047,73.62067991732238,74.88839672057772
899.0,59.532382807500824,73.7786537061605,73.71959939849614
900.0,59.0383613324902,73.34649189013422,73.08085737285423
901.0,58.67932217233009,71.36676013918834,72.6949609943406
902.0,58.254373393578796,68.86082406346027,72.04449508256002
903.0,58.216140857779216,67.41657675334844,71.48466067435812
904.0,58.52902815581227,66.28264135190904,71.3553185167493
905.0,58.98563227728468,64.5260256626793,70.95202539218988
906.0,59.90860403703456,62.675159380063135,69.88717528574705
907.0,61.073416760599976,61.69726476206781,68.8418617357175
908.0,61.499077059804776,61.602836198901024,67.61230129515292
909.0,61.07991262415463,61.50664608797983,65.98843504120562
910.0,60.27361192592782,61.449734327224824,64.69956219530762
911.0,59.70996380145444,61.82176451114031,63.85104620653022
912.0,59.78658523346029,62.297325509377046,63.12931344520717
913.0,60.08488977516455,62.80028284981093,62.687255370834336
914.0,60.32686848264923,63.280000205049504,62.55443465937441
915.0,60.770030701906244,63.49342742188078,62.54317849408599
916.0,61.47408228466827,63.25936639490134,62.232151376958214
917.0,62.47042153360909,62.89857302087076,61.624136381959396
918.0,63.85737186893597,63.21357484583001,60.758984807374404
919.0,65.09087889401845,64.31415471380275,59.85172892287323
920.0,65.53231916680582,65.40626692146408,59.85301131545295
921.0,65.5741199219236,65.97176853928632,60.938641470782215
922.0,66.37988950598394,66.56049927256198,62.57132230945174
923.0,67.9769338484761,67.84346322830903,64.0637900420174
924.0,69.35798242045949,69.15222690713175,64.84914370777918
925.0,70.51564594005043,69.51651480510223,64.95599563082557
926.0,71.78346496555824,69.13343833497001,64.91174415398152
927.0,72.83426778527414,68.75141110225782,65.07855170528158
928.0,73.43513894324676,68.78821086423328,65.64304590637161
929.0,73.69754355011456,69.36076960563926,66.54155363110276
930.0,73.70195215347766,70.27541879514662,67.38739311455619
931.0,73.10744572850032,70.73123618992508,67.76623361067261
932.0,72.5936034247433,70.50641070912579,67.35400463324856
933.0,72.47602781589848,70.48246889134695,66.82847310221227
934.0,71.46946568429304,70.74566158499849,67.20028497805161
935.0,69.55747052892683,70.70997756003906,67.9551463303181
936.0,67.69769973752668,70.74137805925471,68.42498662709447
937.0,66.41807517484271,70.91558672308054,68.73192644365636
938.0,65.34995834885025,70.6035666248879,68.01667954709686
939.0,63.88565263286442,70.24672975677888,66.10412323645463
940.0,62.78120011809685,70.25300157468862,64.32624223621637
941.0,63.097288132067916,70.50584136312709,63.19166962676329
942.0,64.47472161410197,70.43270010009446,62.18434790780986
943.0,65.42844358564129,69.3574157511356,60.913435342105956
944.0,65.55243663006826,68.23057489515746,59.84016356327752
945.0,65.48833945940726,67.76850683774363,59.29856625035307
946.0,65.6590553204041,67.679708688761,59.42004238782096
947.0,65.9203862158331,67.75409373881415,60.483094072909324
948.0,65.80718899591913,67.65259707739604,62.04321777360315
949.0,65.75728872747837,67.37857204858516,63.36030562651682
950.0,66.32160585563221,67.62752210009558,64.38204130679982
951.0,66.90622941150491,68.41907157223437,65.09877477345132
952.0,66.4905466775245,68.42704205335748,65.62140259761229
953.0,65.44838882758722,67.43964196687055,66.06489480256751
954.0,64.91769164678391,67.17250757933866,66.43181413747575
955.0,65.06967568440523,67.88126646954302,66.5359642978519
956.0,65.35472855063782,68.29560121104376,66.57497943020472
957.0,65.66229114803177,67.90687157560873,66.92772961083588
958.0,65.96263031987702,66.57020559063818,67.4682453559552
959.0,66.37351006752452,64.7538913458222,67.82700111621445
960.0,67.27097571714974,63.219727610899874,68.23542545228123
961.0,68.60343603916837,62.14906475780968,68.86953201432323
962.0,70.15503270970348,61.59535233826482,69.24178788421784
963.0,71.83729391915807,61.78084326471176,69.07879073650905
964.0,73.13659067312439,62.65058148446612,68.53835926469637
965.0,72.92954575669545,63.242174023070476,67.76098044669386
966.0,71.26776736504951,63.272084201186466,66.94255516471897
967.0,68.70647969997502,62.77678233473054,65.6310903803054
968.0,65.61158433079756,62.14157184827057,64.04413638672796
969.0,63.26545561732485,62.15878532416211,63.314268070695114
970.0,62.321739473075475,62.35816227221529,63.44483327604266
971.0,62.65256250812126,62.573056283366924,63.71461247318574
972.0,63.68140238428479,62.99342769466901,63.43762029125001
973.0,64.31806984560292,63.57674636784891,62.94058056670193
974.0,64.44531358938136,64.70255181116114,62.56354155140996
975.0,64.25948390221278,66.24182181058949,62.450430168730776
976.0,63.211923163411456,67.36701657074296,62.59027621868773
977.0,61.30045582155465,67.78715660426053,62.57628551118257
978.0,59.57352362893464,67.58704023860142,63.04702346253618
979.0,58.93042853673063,66.67305208788198,64.40245663298536
980.0,59.147642977250406,65.92872661315073,65.53459556134897
981.0,60.20636942195623,66.2681662017096,66.17636206092449
982.0,62.22738063241834,67.06141377734183,66.55011740039734
983.0,64.25278445054177,67.50828871582368,65.6708661724414
984.0,65.79328531368152,67.81515357403694,63.553223246183286
985.0,67.25716535520252,68.38621901825547,61.36104771216159
986.0,68.83674268668852,69.01365021171262,59.77066967939832
987.0,70.67966385461165,69.13364132798036,58.796301553943984
988.0,71.90305442017889,68.74183359481773,58.2168387536267
989.0,71.7701748809426,68.04218293572738,57.74721984073666
990.0,70.6643181971172,67.02654850144015,57.31952919375253
991.0,69.51136540153922,66.17162650433848,57.62978728628861
992.0,69.73342393974112,65.79512063941998,58.79241837557106
993.0,71.57897354187638,65.59246949093937,60.06558475611127
994.0,73.95428444434225,65.48247997932883,61.10017357769522
995.0,76.30808107389865,65.32833326535577,62.09406667049492
996.0,78.46506259366909,65.05549154856777,63.22941099682967
997.0,79.8775012754358,65.18971095941173,64.68770982218324
998.0,80.66007483838258,66.400010100657,66.78197131456558
999.0,81.0092153425168,68.5580715044522,68.95593739236938
1000.0,80.87872604339276,70.99334669611672,70.72432717424789
1001.0,80.65737465496849,73.237350573115,72.34244500717247
1002.0,80.88238353020934,75.29928980167826,73.59925013421723
1003.0,81.94392323116664,77.33844049166477,74.64011182031285
1004.0,83.62908569887551,79.04170938225126,75.59993592517294
1005.0,85.1349037165449,80.43122738716433,76.24522335917095
1006.0,86.21662646591257,81.4379254736431,76.56309687605048
1007.0,86.7587581945679,80.98323952393888,76.22697613483516
1008.0,86.5091388331553,78.92142354066314,74.97377024692616
1009.0,85.76779657889858,76.51237295150236,73.5734458576315
1010.0,85.11528795922712,74.71829089612913,72.89976974949246
1011.0,84.00866115348256,73.17778529355868,71.90691126239453
1012.0,82.68686600253882,71.8531226247972,70.21188413101524
1013.0,81.99015452147212,70.68390273062411,68.85806031227185
1014.0,80.88014618482126,69.02030047816577,68.18692079363635
1015.0,78.68072583428108,67.3351449124649,67.94062809514388
1016.0,76.54581610501964,66.46660366464683,68.28090248819933
1017.0,75.32919120891947,66.09597697977111,69.07646868838845
1018.0,74.47834934850815,65.56554327869472,69.57532170719146
1019.0,73.59759694079933,64.98116113777142,69.62890484354165
1020.0,72.49543906861037,64.33996012976812,69.1722678235375
1021.0,70.96758216205725,63.152406586374354,68.06860115388027
1022.0,69.75291097998094,61.3268038238206,66.73085364714369
1023.0,69.18402420730406,59.3999124040751,65.64670961235446
1024.0,68.05006543858153,58.04738133277437,64.96591551704397
1025.0,66.64667602294702,58.098828969371304,64.85567886755551
1026.0,66.04320387393831,59.30113374010635,65.02011237831918
1027.0,66.0437054440447,60.28686026499811,65.46148850372576
1028.0,66.19652592656279,60.46995284252261,66.42328379024178
1029.0,66.35485687233637,60.64870116222724,67.37976512021929
1030.0,66.55374090264806,61.22284087589704,68.40168448331592
1031.0,66.74371868065398,61.797120330663375,69.77952278536885
1032.0,66.61033894559225,62.23612684392029,70.30210789668988
1033.0,65.81471098878649,62.738738281690814,69.37597934581837
1034.0,64.19635560603639,63.52681012059133,67.51897835613954
1035.0,62.518615366199384,64.66080188726559,65.49489543207326
1036.0,61.27951468574288,65.91952182916826,63.648827525608255
1037.0,60.417455220707865,66.81691666605076,62.01464557489787
1038.0,59.94030522655984,67.0010385469645,61.38497053632009
1039.0,59.82532696391243,66.81105873053414,61.95337976904333
1040.0,59.62235570477631,66.64968137925493,62.60111096248429
1041.0,59.200551435413686,66.68747870931229,63.10516424204887
1042.0,59.189791843598535,67.31272775907391,63.88206189580207
1043.0,60.29323972134715,68.60936014833278,65.15637034906376
1044.0,62.335269846816075,69.86516314502244,66.35411819490419
1045.0,64.69593381997089,70.60017048932784,66.87029152506194
1046.0,67.12329722400591,70.50004471240894,66.8450899887389
1047.0,69.07134848485232,69.7532793160487,66.17298183024438
1048.0,69.86153832789584,69.36789272987575,64.55602888294291
1049.0,70.16322281231103,69.6722621163123,62.96246075349523
1050.0,70.27005136787473,69.7672995082296,63.023682230012646
1051.0,69.90716319253153,69.38530874326226,64.43088631336597
1052.0,69.43900096312248,69.02551114872615,65.8959892745284
1053.0,69.0280822509305,68.84089051427635,66.92386867922751
1054.0,68.38934510772722,68.86543640709436,67.23152826580248
1055.0,67.78671667160462,68.9502640522692,67.21369906454798
1056.0,67.62354626602036,68.31288876854967,67.6590319140152
1057.0,67.64469429047993,66.8115524305897,68.68405802723801
1058.0,67.81634709832933,64.89915778727777,69.79781024550871
1059.0,68.11292476756581,62.780792683135026,70.68278864768348
1060.0,68.68752548663664,61.324875524307146,71.92929335845982
1061.0,69.69343496492968,60.831804044532646,73.8850823253782
1062.0,70.18529576454361,60.52703191800068,75.8446075395256
1063.0,69.77522330355544,60.40943720082578,77.3761156573568
1064.0,69.17748412982183,60.80835498992947,78.3905011501762
1065.0,68.17564859660708,61.06336564514733,77.8766479347599
1066.0,66.83961584549925,61.3819606981091,75.67029455258711
1067.0,66.11581459600713,62.31263451051987,72.69357298353238
1068.0,65.89552663183467,63.56194115207795,70.14409196957804
1069.0,65.85723446495287,64.86925201572849,68.91955965542179
1070.0,65.84942213697137,65.92586160472962,68.05396797193836
1071.0,65.81324109348041,66.23450929789985,67.15917300961951
1072.0,66.02615885497238,65.31673081268059,66.61155216927024
1073.0,66.1654069829595,63.83242322969891,65.80102336707151
1074.0,65.3710889789433,63.00302904809584,64.49651156082206
1075.0,64.23684555094654,62.99317912955978,63.600992759051955
1076.0,64.03418813795055,63.01589179430923,63.464879543922216
1077.0,64.21212681265308,62.31122982765174,63.277877736448275
1078.0,64.22586957822648,60.991089749993044,62.50815670289574
1079.0,64.55041529318035,59.77414293443808,61.87072559055827
1080.0,64.68312813589966,58.90093156445394,62.12176634328402
1081.0,64.21867800729846,58.22139666278477,63.001254942814334
1082.0,63.63365158676646,58.045708119635194,64.240632993408
1083.0,62.59372983649773,57.95966125730921,65.02705913692263
1084.0,60.571987381027405,56.822640245938416,64.7842789229121
1085.0,58.722185491909435,55.210244620815494,64.6814016383754
1086.0,58.20772617704853,54.536194435494146,64.76700757198354
1087.0,58.55066118013817,54.91392386225301,64.28534393551192
1088.0,58.72393848588098,55.628192122758804,63.65691039764974
1089.0,58.53115478882967,56.05578853353021,63.19792972543184
1090.0,58.15906727942264,56.2711776581043,63.35504494707477
1091.0,57.75252017908845,56.80053297047031,64.52058069837798
1092.0,57.826297277769,57.545740106226596,65.57999312494002
1093.0,58.302296328716,58.018828735134036,65.99215122688445
1094.0,58.462279276774616,57.95498202159875,66.1520119848971
1095.0,58.1483981058497,57.83182745226671,66.23641399256955
1096.0,58.11433114045671,58.23978462737258,66.8207609976711
1097.0,58.752776434441046,58.737493533968994,68.26946652150295
1098.0,59.60105405475075,58.951345838935964,69.8879684777657
1099.0,60.48087023115223,59.226574007000934,71.03701990889897
1100.0,61.53518853560489,59.694670300212465,71.4490923672918
1101.0,62.94713406430026,60.73136590082837,71.3267387272662
1102.0,64.45435610462756,62.687425753407105,70.72059060658607
1103.0,65.62014950276453,64.91525671150198,69.308282519919
1104.0,66.3470624427678,66.29501859343684,67.60317784931989
1105.0,66.38749531556388,66.30222769678001,65.9290268867913
1106.0,66.17911505618478,65.16526614570385,64.29581327226109
1107.0,66.6038477181279,63.77875761960487,63.18831196101643
1108.0,67.10459535228296,63.02445606723436,62.77364420656319
1109.0,67.01572819225197,62.75704990766285,62.885319992393136
1110.0,66.47836125705507,62.20438211698129,63.17616555033881
1111.0,65.67260025538425,61.21374486350537,63.78865671599292
1112.0,64.96436394400622,60.52091926426049,65.01920141895543
1113.0,64.41390769265675,60.54140463030491,66.09644206075507
1114.0,63.23853430292805,60.90087625687563,66.01490559010529
1115.0,61.36415529371611,61.68154664498828,64.41423384318874
1116.0,59.50359916283589,62.845047475161394,61.83859482017586
1117.0,57.79254073668664,63.86701121184411,59.81289885977088
1118.0,56.203290753138106,64.8730930272898,59.42812642983898
1119.0,55.68477578159122,66.19035586396988,60.454442950642395
1120.0,56.645090994283116,67.61777474442647,61.85065311783953
1121.0,58.307002991372215,69.04198545851658,63.17978315510515
1122.0,60.053863831655306,70.51595434733169,64.85566119738611
1123.0,61.90555293042112,72.09892897725442,66.76548813908032
1124.0,63.84141225885528,73.50502001390144,67.99666968906105
1125.0,65.72794266519372,73.96824222273366,68.5763491296339
1126.0,67.17195355652878,72.69241657303192,68.94169174445537
1127.0,67.10203660821763,69.472743583872,68.49295952785312
1128.0,65.57211057434498,66.14590913955814,67.33247795438984
1129.0,64.17404094167233,64.15339964629544,66.34734176063395
1130.0,63.85455726945203,62.953890227945514,66.06095459360024
1131.0,64.05211702761028,61.46718976210319,65.75714174681723
1132.0,64.334060882053,59.809548064815765,65.23532017655621
1133.0,64.44698868183958,58.80137395389547,65.22870182884924
1134.0,64.11567917008097,58.34303788756742,65.30546526818787
1135.0,63.13368448025338,57.55964940945024,65.07527755962806
1136.0,61.8528950882435,56.72563104592152,65.49087354545078
1137.0,60.84251876665137,56.2792653278158,67.13139138453124
1138.0,60.031570188456165,55.80738415888359,69.34887885698268
1139.0,59.76406608110906,55.367122003830175,71.11791135718299
1140.0,60.008954039547284,55.37473134350514,71.29641195553074
1141.0,60.323156428557574,55.74748520040212,69.79600069566355
1142.0,60.708886358006694,56.02137529266778,68.35520017815713
1143.0,61.085608230597394,56.26357138702432,67.94684735258839
1144.0,61.32888342105629,57.10844641087454,67.82776668479117
1145.0,61.61215943095242,58.438750904091634,67.95964372902506
1146.0,62.344378312371525,59.481630568960306,69.1932237331897
1147.0,63.33363813247202,59.93116989579187,71.03131523151188
1148.0,64.45688834212375,60.17380651449755,72.29480662864843
1149.0,65.70509033895645,60.8843659305962,73.15140013215493
1150.0,66.63287878875568,61.90949650834075,73.40580525067938
1151.0,66.94439373143078,62.94144394618685,73.30775266396627
1152.0,67.0984792409736,64.20071195143726,73.65484047694146
1153.0,68.09048893819042,65.55933898205278,73.61746938218656
1154.0,69.66999869628181,67.09277575918809,72.80005027142083
1155.0,70.23226251871458,68.71737818969765,71.51678323685456
1156.0,69.51813358007645,70.10200412303834,69.9076835343244
1157.0,68.33217208577122,71.22885441293586,68.86280718022297
1158.0,67.39705047373579,71.51827499350793,68.58243091098812
1159.0,67.14273217860949,70.73532808467752,68.35355023109358
1160.0,67.30269030831433,69.44116136813102,68.0446383638369
1161.0,67.37733252711284,67.75166882053348,67.24581916258786
1162.0,66.99226140368846,65.85109264921455,65.71531588311328
1163.0,66.10917655104393,64.65181919738662,63.62716284750388
1164.0,64.7562498684334,64.04876699354342,61.49779396084112
1165.0,63.27572615280192,63.55535361752223,59.89780687237463
1166.0,61.59772910691434,63.170982387042116,58.71489273756447
1167.0,59.76525199014407,62.72493382800354,58.02184749200556
1168.0,58.764941453685076,62.099883549402634,57.98255398185682
1169.0,58.82917983982387,61.50879628003014,58.04872706670275
1170.0,59.12846491229756,60.991420451054445,57.74267107805505
1171.0,58.98268899898794,60.76703709004577,57.401098699128845
1172.0,58.32060772873343,60.84675606569374,57.387729888235604
1173.0,57.52328358765952,60.527224715184914,57.899144531013675
1174.0,56.93645733284828,59.39157404746056,58.88868586721561
1175.0,56.22225709367626,57.62848067785415,59.91905377604243
1176.0,54.928544137063874,55.78365439358972,60.720300138270076
1177.0,53.25811384371091,54.48239811672661,61.333450786148305
1178.0,52.07677626945178,53.988612715126536,61.98297304736271
1179.0,52.002784091170376,54.17510941086772,62.41599538789515
1180.0,52.476391575014695,54.74999399070044,62.49199770139385
1181.0,53.22842991014131,55.54257433715779,62.295575966258724
1182.0,54.50690608070296,56.596265111643305,61.88653499456188
1183.0,56.00752515775898,57.40891633381159,61.808159247964845
1184.0,57.36814868255735,57.322450573606154,62.479226177471425
1185.0,58.96378392233229,56.58765130581265,64.09770059413204
1186.0,61.04598260401837,56.25124237272711,65.85254310849905
1187.0,63.28034572527052,56.38567651603563,66.57982183912365
1188.0,65.20729393109575,57.02598741081513,66.69167563967589
1189.0,66.29836344967937,58.94158943942455,66.88799911573213
1190.0,66.15721555761786,61.78328229594689,66.3246675938254
1191.0,65.34081904216747,64.64873077137645,64.31339306698356
1192.0,65.00916988205337,67.45373919894179,62.23538392918204
1193.0,65.49519234123157,70.22515320027571,61.40700035620832
1194.0,65.98046835373279,71.90993609853881,61.27234208793873
1195.0,66.25273920616506,71.77050986906809,60.99779620132844
1196.0,67.36907770932974,70.36099857762812,60.32190916142083
1197.0,69.58898986842279,68.8748468022275,59.54017889621242
1198.0,71.6303985486685,68.18156179601601,59.199668726966586
1199.0,72.45089103824976,67.63225460869995,59.10561962787323
1200.0,72.56512555979864,66.63083820311752,58.922579609360106
1201.0,72.54256156295001,65.96173810615325,58.928562310012005
1202.0,72.59470700522407,66.4019106189586,59.524762730064246
1203.0,71.84289710104878,67.349424594065,60.1849394288102
1204.0,70.23460560940998,68.39376309511472,60.99121852291259
1205.0,69.1493149100739,69.72193619829639,62.42995375666875
1206.0,68.60399469795209,70.41126871170952,63.67722231472469
1207.0,67.68032481454777,69.86222879330032,63.93914304659032
1208.0,66.69077866490612,69.5149318610099,64.14442236432025
1209.0,66.4605467153556,70.03494771549315,65.27787421472931
1210.0,66.78044835327069,70.67420966998286,66.2643807970947
1211.0,66.75729060708017,70.66613101627924,65.89816157009317
1212.0,66.41405926097579,70.24232038001797,65.17474403544696
1213.0,66.23285968254045,69.93586347257262,64.66672394411461
1214.0,66.04604010679697,69.68209929819325,64.1519970815116
1215.0,65.99074013917395,69.7995103984603,63.66892437580158
1216.0,66.26548271585399,69.84129709295856,62.89928383362006
1217.0,66.26202665792502,69.15926813893189,61.803112994100466
1218.0,65.94835657227007,68.52540650706585,60.61392800121223
1219.0,65.81555362152761,68.14524140750557,59.55793948283751
1220.0,65.51875932582584,67.00849418416028,58.44696687935877
1221.0,65.6002045787826,65.53286637640329,57.55857156540325
1222.0,66.67342791797134,64.44428700484838,57.83498405755865
1223.0,68.41728176705368,63.3021021374915,59.00139401644127
1224.0,70.2630818556726,61.76756487720286,60.13520364645713
1225.0,70.90650513862425,59.969903105777675,61.17372887901644
1226.0,69.75856289230673,58.51689486558102,62.47042369981644
1227.0,67.59720564297899,58.152255059627436,64.3364012669233
1228.0,65.01551769306299,59.260172969622616,66.34985389629148
1229.0,62.31064456639849,61.67531276623785,67.60861955468843
1230.0,60.45282554543675,64.16880226321436,68.11005459941772
1231.0,60.118461018038566,65.470887538417,68.34522124787911
1232.0,60.93909665236818,65.7345456078934,68.65608979944285
1233.0,61.860174238963,65.27487795227837,68.87114633781265
1234.0,62.189225272406084,64.46144467923055,68.96445451917397
1235.0,62.106496221586156,63.60689663418213,69.31911821368004
1236.0,62.38364056384195,62.627181460730995,69.91470444964521
1237.0,63.39069043102577,61.58702954921779,70.37039555168626
1238.0,64.56994124481922,60.580450162366525,70.63133562815607
1239.0,65.45047455105146,59.606784463195915,70.7301134863648
1240.0,65.89947015071817,59.11053940587836,70.67904599171844
1241.0,66.3318633752513,59.61772147555125,70.46834132713875
1242.0,66.79374207882925,60.84118151698622,70.44257472234405
1243.0,66.2719304315922,62.29397158314285,70.75095660096063
1244.0,64.5425957533538,63.56010995819089,70.79349250677932
1245.0,62.92337866932691,64.33687480472267,70.26977468875666
1246.0,62.73339268187032,65.05500301623691,70.25191659179521
1247.0,64.03392428903916,66.5510012474913,71.31972339146235
1248.0,65.74874354038512,68.49634180933963,72.28944970735313
1249.0,66.46636215027169,69.21895519035384,72.37216011904097
1250.0,66.2278933570126,69.10394614034638,72.2321913761589
1251.0,66.52903726336865,69.35864195354162,72.54641607396374
1252.0,67.98830244551327,69.580527437562,72.94842187761465
1253.0,69.52582201690814,69.34997625222282,73.14161986310573
1254.0,70.33995758702697,68.82197722522913,73.63072456804143
1255.0,71.38846310064304,68.93591388184122,74.76625150869656
1256.0,72.89202318782596,69.75488759330715,75.87938687269781
1257.0,74.77842891301583,70.558839144801,76.52504180636082
1258.0,76.98554226078286,71.00147622906816,76.52961217446544
1259.0,78.35390599514135,71.42282103921504,76.11086258606278
1260.0,78.28055975672665,72.14524954822768,75.69037364019204
1261.0,77.7810606113453,73.71879226694595,75.81573119808822
1262.0,77.62177968420589,76.06246935440986,76.02371176647917
1263.0,77.47400258408263,77.68147489096607,75.67153161527406
1264.0,77.51535527877557,78.2402698463198,75.38996043557901
1265.0,77.50811416779152,78.24398421980514,74.62924576886178
1266.0,76.52675643610763,77.63881689848957,72.81128903142759
1267.0,74.94787361246415,76.32585372138357,70.79621902027309
1268.0,73.78788391292915,74.52021459195792,68.75728275369612
1269.0,72.88286587928248,72.88927016151496,66.95193575128714
1270.0,71.65236967176811,71.96255898129604,65.61482750199605
1271.0,70.24124720126521,71.39473609899366,64.67727940746308
1272.0,69.34267440814536,70.51619441716588,64.41729799246397
1273.0,69.07079522842018,69.33277574129833,64.88474253729125
1274.0,68.97227212029985,68.84063722135849,65.5779318965423
1275.0,69.41885586574038,69.20641414954379,66.13222811231535
1276.0,70.10100253394214,69.50436917231727,66.71867529610027
1277.0,70.46260031637485,69.8763205879591,67.8687744648829
1278.0,70.66600515314427,70.58019955124482,69.44971567530375
1279.0,71.08915733303503,71.60030289140514,70.88367717445625
1280.0,72.16428091338591,72.49867901022465,72.3562598222072
1281.0,73.54079543395335,72.86394506310039,73.80034062611018
1282.0,74.47460540559246,72.97977265028268,74.16829581288681
1283.0,75.26435964723893,73.06963714663885,73.40845307914476
1284.0,76.54274906426171,73.55887029291041,72.66660118347754
1285.0,77.2777414401913,75.00659476108252,72.33950541654698
1286.0,76.95323932430216,76.77835699380613,71.84145906935635
1287.0,76.51693179138493,76.68449937187067,71.31692427496556
1288.0,75.58248348095687,74.19026093622738,71.05699669243445
1289.0,73.6518407594155,71.73922977084908,70.65956266507418
1290.0,71.09439432343066,70.22382291446674,69.49282324665873
1291.0,68.91618907709599,69.54924106941858,68.08007913164595
1292.0,67.6106787117334,70.46565611408357,68.15141707392846
1293.0,67.34252083670899,71.67372549784393,69.66779017711377
1294.0,68.55454139887402,71.74013321595577,70.78965814926045
1295.0,71.51823258637796,71.75227019898013,71.56807956823248
1296.0,75.05009369612017,72.05991591578022,72.28923240088258
1297.0,76.89182715752574,71.87637385027013,72.08248116664443
1298.0,76.3889491254395,71.38534282239854,71.53586045105249
1299.0,74.98481810935665,70.8420140140013,71.7456665484251
1300.0,74.24818188116066,70.30349360483065,72.5986198857038
1301.0,74.28071144048462,70.23302831996006,73.68841915654922
1302.0,74.03357316892284,70.88045271049769,74.36056471940914
1303.0,73.12013316448997,72.1716243686963,74.41011196851134
1304.0,72.51358603898065,73.41110329010127,74.85135240672876
1305.0,72.93948747149993,74.13881840172193,76.00677537221101
1306.0,74.36698290379266,74.38727396524854,77.41605692535276
1307.0,76.19837894376637,73.90563264363882,78.65959507150237
1308.0,77.38874803529086,73.16621020426801,79.7939691545173
1309.0,77.21150113018753,72.24002119506483,80.5822804947447
1310.0,76.53102062514802,71.4014677435102,81.57971676632118
1311.0,76.55416003765899,71.25483348674699,82.80420986205641
1312.0,78.03202064442333,71.76741900172941,83.72976376077695
1313.0,80.01917895687,72.16896749856485,84.71471004027391
1314.0,80.90886179561386,72.2294199631556,85.13678893283638
1315.0,81.6425027993027,73.30875105846495,85.02571985700509
1316.0,81.86422816971812,75.33551227192214,84.58042661125484
1317.0,80.22564352231828,76.49441814982711,83.66630768068238
1318.0,77.76936733729113,76.7014569353924,82.98418420535323
1319.0,75.20860161362937,76.94761793796705,82.82161728568795
1320.0,72.86104698093459,76.8801010330769,82.39042743631187
1321.0,71.06718128031731,76.29590500166042,81.41944565744578
1322.0,70.34003602468414,75.94971197725569,80.84366935527774
1323.0,70.72241743392262,75.44362443764581,80.78926669621995
1324.0,71.07670930517772,74.21798903323999,80.90322280467515
1325.0,70.8087604053023,73.02744382424747,80.54789678948045
1326.0,70.2753412382009,72.29938138522881,79.16031400741694
1327.0,69.92732248692754,71.45827681123967,77.6155299344372
1328.0,70.13094443191511,70.23831237267524,76.49409512590438
1329.0,70.45168404580299,68.78840011974629,75.1535000557466
1330.0,70.2710522075356,67.45552306010867,73.67460015413408
1331.0,69.63841677069668,65.69018660247703,72.18466104078574
1332.0,69.57978235344927,63.89519782276915,70.86643751294656
1333.0,70.44173167754403,63.69970263542694,70.46205970786843
1334.0,71.68937104141216,64.88548948632284,71.09365392017945
1335.0,73.19236369380741,66.0880567210104,71.69496557335297
1336.0,74.7693251862768,66.6477451584934,71.66207665623882
1337.0,75.92332785330242,66.53300115851978,71.56997017747481
1338.0,76.11538332619102,66.38631995466687,71.72611643253659
1339.0,75.55899331435616,66.86549200332203,72.42436235241827
1340.0,75.14849815234227,67.48821600615386,73.10072419738995
1341.0,74.5622604132376,67.4295123555138,72.34208319781301
1342.0,73.10576550565227,66.93720613319967,70.53565493519515
1343.0,71.00801767007079,66.40818028060407,68.83457667634039
1344.0,69.21859411533501,66.59716803903758,67.54168054346663
1345.0,68.13357053671447,67.2555890500684,65.9898266330359
1346.0,67.67006867310756,67.3405571900612,63.89450853350623
1347.0,67.63763736033998,66.65843690002629,61.63986113887783
1348.0,68.46052557611377,65.89593739418159,59.95584567967909
1349.0,70.47405798395646,64.90472411848468,59.650933013971084
1350.0,72.80429891603232,63.33942450049406,60.64095193267127
1351.0,74.98676442194875,62.4381369137577,62.31021156637133
1352.0,76.80116268200634,62.37046813642528,64.54886036048079
1353.0,77.87811335752234,62.62295580731151,66.94885648727298
1354.0,78.06760482293456,63.31263562598984,68.82974853390547
1355.0,77.28627117329363,64.365735393903,70.14283854182102
1356.0,75.6625612825069,65.82350366731842,71.94194779434156
1357.0,74.13811553781167,67.47235074213897,74.28896873556467
1358.0,73.27577041193709,68.76202940298137,75.89470607664332
1359.0,72.67589982630612,70.16094580053354,76.32827844057135
1360.0,71.60164537563409,72.04438354289668,75.672314669696
1361.0,70.03761048602529,73.7134015943649,74.63576728119092
1362.0,68.69609503962745,74.29696481428681,74.04106385936032
1363.0,67.68941386156887,73.65309829541468,73.60256159169845
1364.0,66.88644077561266,73.08271027457161,73.51901271023642
1365.0,66.43005109478808,73.54472175758323,74.21757098890056
1366.0,66.47658425174372,73.72034674327894,75.5660737592803
1367.0,67.07566376302142,72.70840188953639,76.98784313499615
1368.0,67.95846821381511,71.23557484941738,77.92894955604373
1369.0,68.59418631534606,69.8272151175153,78.33190707105658
1370.0,68.54651053761906,68.04003428597852,78.00117171978879
1371.0,67.95078336873752,65.80793282913042,76.55031481787022
1372.0,67.17257801239748,64.1313432906721,74.31387305862721
1373.0,65.69239570854984,63.2187910430973,71.99475023489299
1374.0,63.645004917732926,62.632782950794315,70.08871512455329
1375.0,62.13729475050466,62.3437231703945,68.39739693804576
1376.0,61.87373899528184,61.98765209332137,66.45325539395353
1377.0,62.65550330746384,61.17243269191456,64.71758851335329
1378.0,63.6397099521949,60.40315777906095,63.65132899155528
1379.0,64.3636924691492,60.41945400828972,63.03723222847933
1380.0,64.40292206457313,60.9426858445833,62.3319327599137
1381.0,63.747753335662466,61.33491956433045,61.6874648536555
1382.0,63.087705347039936,61.84528621118776,61.42989867973726
1383.0,62.3416692955217,62.81336545764939,61.474284602604925
1384.0,61.53041462587572,64.52321793169071,61.91272805689889
1385.0,61.320253032238696,66.53212590443609,62.668172066828916
1386.0,61.722222847871585,67.90004967129126,63.47050824777312
1387.0,61.9482564370477,68.46993804031324,64.8798929534679
1388.0,61.83433015776627,68.55752770836774,67.31719278259277
1389.0,62.130182621598756,68.2302258085149,69.96185470176972
1390.0,63.30772717251532,67.78907147447698,71.8261326990006
1391.0,65.14671556104196,67.56194309092605,72.80350956453863
1392.0,66.88169874528748,66.94944643707034,73.33127736875772
1393.0,68.3001642074981,66.02290041229378,74.12517623778426
1394.0,69.27671088733811,65.49167044842656,75.19397471045342
1395.0,68.93736026231043,65.37710473726919,75.60823656200442
1396.0,67.38439578983203,65.2045097459268,75.32232235802581
1397.0,65.779062043197,65.23788484692375,74.86522864790878
1398.0,63.975386060034864,65.49339961629241,73.88972729221088
1399.0,62.21669567298876,66.12767121682025,72.85777805290155
1400.0,61.60981809322365,66.85676485100697,72.62736332314296
1401.0,61.993034033292695,66.37014047438475,72.3273613557118
1402.0,63.15630494744962,64.93595247077475,72.04662606625908
1403.0,64.83765053037138,63.24869583776183,72.45093161827927
1404.0,66.39908293637049,61.86338181102992,73.1774601941358
1405.0,67.5459814416124,61.64228761574998,73.70383443576456
1406.0,68.04462332210484,62.01468090012419,73.38773791041052
1407.0,68.47733926768302,62.45433410286559,72.955183468856
1408.0,69.46963058469476,63.78193838053055,73.6708373725032
1409.0,71.03066356239313,65.84528529943984,75.41276950413176
1410.0,73.2450820501426,67.95043723509684,77.38616952674506
1411.0,76.01685398939594,69.55043507909485,79.1158773996054
1412.0,78.87085709401637,70.32581822205124,80.52201842414674
1413.0,80.70856331463064,70.58540209663165,81.23031115038604
1414.0,81.01338447071204,70.74621939775797,80.95449405892529
1415.0,80.36205845465575,70.76556737399827,79.81355019660298
1416.0,79.76759521037705,70.32807668682443,78.42532708306523
1417.0,79.54787733797892,69.51412160244651,77.80214841673772
1418.0,78.87217559500858,68.66276991192733,78.34097268333548
1419.0,77.44787383205464,68.2159551913661,79.33696342352634
1420.0,76.43853982006992,67.92405434322856,80.01679006048585
1421.0,76.11270874589755,67.81756652901356,79.88201491649892
1422.0,75.75092726759897,68.7749584240866,78.51041920550645
1423.0,74.71992207061014,70.50737133689053,75.9686971275331
1424.0,73.25089089786589,72.58453961003178,72.96218702773444
1425.0,72.15555334521598,74.87388829588123,69.97082326828647
1426.0,72.07324580935445,76.46446116920274,67.44222588147001
1427.0,72.93321759449185,77.01887517832199,66.20881799605334
1428.0,73.98965126715156,76.69570818003014,66.16757710350483
1429.0,74.9178306118143,75.94513375363708,66.71718273183781
1430.0,75.72190679556034,75.70278566836033,67.612274244357
1431.0,75.82582127064099,75.6752592617402,68.27232515334902
1432.0,75.49312476477387,75.2440357566362,68.48783118507113
1433.0,75.18980429526852,74.71682889912978,68.34075525238394
1434.0,74.86521250662095,74.4110979916636,68.55013447585631
1435.0,74.72663616957904,73.97651263972534,69.21212595340374
1436.0,74.4047926060045,73.24066297953534,69.52743878920641
1437.0,72.93074592901645,72.50356745823201,69.23434256431801
1438.0,70.55693338452558,71.98872823703361,68.97440922243965
1439.0,68.792600628943,71.73756585937463,68.70409548140601
1440.0,68.20884539346055,71.55847603896125,67.979167099343
1441.0,68.64971356892838,71.77307833191267,67.90862005528206
1442.0,69.43026022794777,72.07314025066657,69.15493071490286
1443.0,70.1170666904132,71.68046949687506,71.0206303511775
1444.0,70.64655047247015,70.31077409928668,72.51458479106023
1445.0,70.83660527540518,68.23794361428472,73.24251790143647
1446.0,70.53479666041018,66.0216340122408,73.00250064645203
1447.0,69.4752749386054,64.10507850287884,71.61322086275231
1448.0,67.75172194634368,62.41060659312969,69.68733425294404
1449.0,66.04603238596754,60.63627688484517,68.19565594592909
1450.0,64.87782166624253,58.84821810778946,67.55781130954588
1451.0,64.88502798431156,57.897288269086665,67.69720342885988
1452.0,65.6965169755028,57.99807427005914,67.3961473139826
1453.0,66.12861503966145,58.35489604294017,66.12263818891886
1454.0,66.12236831615878,58.70807266271564,64.70863649633945
1455.0,66.04912447240567,59.225644420894874,63.48494034679079
1456.0,66.43441695926546,60.32217179134221,62.74121881686841
1457.0,67.25129818207685,61.76496804172596,62.41727172194895
1458.0,67.7179948944269,62.28075068009843,62.39617561588896
1459.0,67.84240163125868,62.353365595972626,62.80173243090747
1460.0,68.00962763175154,63.0408836581009,63.599379755463794
1461.0,68.24611334254269,64.44564020120482,64.61857026254502
1462.0,68.42404641121746,66.36404849760895,65.66568953101941
1463.0,68.87528205827685,67.6621182221049,67.17802826186602
1464.0,69.8683894333167,68.13119844727726,68.92208780471442
1465.0,71.10598013117485,68.62101589517803,69.85267057520728
1466.0,71.93321032738753,68.93452042626947,70.08400873893622
1467.0,71.54467687552477,69.15473067590841,69.96090612826796
1468.0,70.50074987413686,70.40568820445782,69.61712467017028
1469.0,69.2588537469852,72.63707184564038,69.3000355165786
1470.0,67.92992168797048,74.84581837093035,68.84630133023433
1471.0,67.0928165293275,76.14997226989817,68.15835593905464
1472.0,66.80700823889862,75.95699465919724,67.32605300440869
1473.0,66.58508913632329,74.6396289720175,66.59543235014512
1474.0,66.31954016833346,72.71644141653428,66.11193756500224
1475.0,66.02301023551809,70.88647708100137,65.86110445981188
1476.0,65.81985413578929,70.1078955010394,65.90110446953834
1477.0,66.34117585522549,69.9262729159243,66.1088310109468
1478.0,67.51025423905716,69.48013817887522,66.4108422714447
1479.0,68.95392839598931,69.33076001433362,67.4143101185125
1480.0,70.25966652266624,68.94341503541061,68.59149208097621
1481.0,71.36667429627735,68.41815606679386,69.16924326497308
1482.0,72.5778505808176,68.52031040222236,68.85099713926421
1483.0,73.66933647500623,68.68963414222047,67.78054993319442
1484.0,74.9611930135285,69.28779929615702,66.84566117391977
1485.0,76.551877533311,70.5200874954657,66.45808142974607
1486.0,77.37066464253091,71.54635535381877,66.77223079240761
1487.0,76.98965008152649,72.24199664819244,67.5836270152954
1488.0,76.46408045546427,72.99419676938889,68.48048582883379
1489.0,76.29707303316789,73.81159221706149,69.26173567884734
1490.0,76.83542170845931,74.28011746072185,69.72990999563314
1491.0,77.54613214440869,73.70681248961341,69.69697769249454
1492.0,77.55340706098575,72.5324961890887,69.2542887342726
1493.0,77.0493811252555,71.74160619903626,68.80520923361905
1494.0,75.99661327843143,71.31806905110082,68.48387153570577
1495.0,74.91666944296233,71.1057301124228,68.32100811947528
1496.0,74.87698217307401,70.89482260663746,68.77892906992531
1497.0,75.6332038288398,70.0688418278011,69.90286188568258
1498.0,75.80318864394904,69.01767874676234,71.60387652496999
1499.0,74.65293362889558,68.33408663013793,73.78975574185947
1500.0,73.15687822894556,68.15794940377529,76.02782750110592
1501.0,72.19425630906584,68.88318433035745,77.78598382681274
1502.0,71.65170059190939,70.78871617864571,78.75185281908769
1503.0,71.37481302740923,73.24855631895342,78.66991109130248
1504.0,71.2424958549748,75.31011653667234,77.59240513832155
1505.0,70.86923954483981,76.0608236572895,76.64700454856454
1506.0,70.20155902345947,75.03595362129386,76.39670479292482
1507.0,69.93206203676642,73.44060357069544,76.23200078008894
1508.0,69.73881864031621,72.2845753198222,75.28001452252181
1509.0,69.32329850660363,71.18383781239082,73.79509033732869
1510.0,69.22918089258378,69.54656601966109,72.96121950427015
1511.0,68.58752968471563,67.10839295237962,72.20429059817349
1512.0,67.41663202060592,64.20437506080499,70.65592422997426
1513.0,67.206101680107,61.363924708739574,69.46530718166129
1514.0,67.32558321072621,58.581741180601014,68.88416077668417
1515.0,66.83700779300227,55.94555428438696,68.02241520015234
1516.0,66.43057462638734,54.10152455058679,66.81895306648786
1517.0,66.48169751559351,53.333299472676394,65.34642008803883
1518.0,66.32357654724527,53.647838143544234,63.88847691712896
1519.0,65.89015349601317,54.70387657094476,63.12104367169355
1520.0,65.82271149459018,55.70232005584063,63.03737670474131
1521.0,66.17050492836819,56.27571147731365,62.853764177715846
1522.0,66.54949841228768,56.75735012670333,62.17949222515794
1523.0,66.3541217348141,57.71720806444129,61.335955949157494
1524.0,65.4782114248724,59.25885287699143,60.63042619188843
1525.0,64.46037333498806,60.48625281744314,60.238621202672114
1526.0,63.64900685399305,61.070569712583236,60.23175901490401
1527.0,63.29216468562491,61.8537678764669,60.52090674444522
1528.0,63.0998490270058,63.19481676654297,61.541414732055344
1529.0,62.6819526133172,64.40268352218196,63.289892182587444
1530.0,62.1059172326403,64.74524560544597,64.47517124111549
1531.0,61.36020684550057,64.08632458558273,64.3665922741448
1532.0,60.58174311757945,62.59519314161709,63.38574998147632
1533.0,60.00845048537406,60.89973126382466,62.03243293052216
1534.0,59.66234044508656,60.0277175490255,60.704977947386546
1535.0,59.80600603125854,60.238431585485166,59.55669658508909
1536.0,60.679100682184,61.06165590403536,58.89199940312795
1537.0,61.58966537685488,62.239921855430545,58.69603849863704
1538.0,61.79515931940788,63.602598005588455,58.61526211991299
1539.0,61.01055391341723,64.68985421305038,59.01221924589151
1540.0,59.53147211470139,65.22299316777206,59.47000717854487
1541.0,58.609374943763406,64.9709961113294,59.16704209902303
1542.0,58.787182834601,64.17191513125957,58.278856578817134
1543.0,59.42887673711028,63.14548886769538,57.47753815784914
1544.0,59.945512027015695,61.87519455352082,57.34232779725076
1545.0,60.1961560132009,60.43793224954773,58.1089651460521
1546.0,60.21245075087492,58.93904806626939,59.26195781104
1547.0,60.35118331784176,57.358989156318316,60.28576815246822
1548.0,60.8158769455969,55.95160133216283,61.25395280241326
1549.0,61.47915284525249,55.204691451861194,62.38697276125932
1550.0,62.81893303327158,55.58597433029407,63.63459550497992
1551.0,64.74764829578034,57.04999853480668,64.76101510437837
1552.0,66.35804582693069,59.30831720936879,65.39984237001303
1553.0,67.01290884923628,61.960642556050665,65.42166047648739
1554.0,66.34305207258983,64.34894439871582,64.49213640987415
1555.0,64.79932984522654,66.22573216929035,62.808047134746495
1556.0,63.51747785285479,67.72333758810773,61.68935151530484
1557.0,62.39550816418811,68.63568322516575,61.099169500042166
1558.0,61.16916827001699,68.6740601130613,60.88608096011559
1559.0,60.26088615297681,68.48750705864089,61.68675794931115
1560.0,60.36142134204655,68.91536590235654,62.9141608983236
1561.0,61.31322810694491,69.63147251991853,63.61387920089009
1562.0,62.08017301016353,69.79295869073265,63.37097678412512
1563.0,62.44645660581764,69.69518454531328,62.932838962371235
1564.0,62.12725726653612,69.3955384780223,62.88056336662883
1565.0,61.424268010822935,68.579730700494,62.985390365569366
1566.0,60.94136321140805,67.76217584544064,63.0530431582783
1567.0,60.819136693931526,67.07620792774594,62.50841322079933
1568.0,61.30130322906625,66.405232140689,61.02004985175477
1569.0,62.27870237792712,66.39377431634978,59.05467794707023
1570.0,63.159804119859906,66.7669501305188,57.245942994852726
1571.0,63.82422243160049,66.72216388883243,56.48635526916308
1572.0,63.98299588458211,66.76018353292869,56.56003463326541
1573.0,63.114028086809945,66.88557101524445,56.48527020635409
1574.0,61.94235519963623,67.14775159284821,56.564685943728705
1575.0,61.0319675074912,67.53744631223334,57.37805390375239
1576.0,60.62772085577783,67.4687520228297,58.72736481077139
1577.0,60.86663365710997,67.0879207672746,60.12184598238623
1578.0,61.21625425773772,67.30593731661389,60.7739904564417
1579.0,61.52356289170898,68.36653387659182,60.50226084214133
1580.0,62.35891674301764,69.59864183043746,60.27021134453924
1581.0,63.28212800390013,70.071323867583,60.4847996246887
1582.0,63.65382526668199,68.91438462842187,60.79978522295505
1583.0,63.44171252074828,66.81089232531703,60.76428835040387
1584.0,62.978192444411576,65.4478301243331,60.46719061380011
1585.0,62.574249402074926,65.21003787002236,60.48534992946401
1586.0,61.85917616452373,65.53805686238374,61.04229098659121
1587.0,60.897817946779135,65.41469907358763,61.85256261631277
1588.0,60.25276342655544,64.42572091963811,62.55380779201063
1589.0,59.46145138879988,62.66400265977738,62.69659744538391
1590.0,58.75526420166313,60.70149514870027,62.65768691394333
1591.0,59.30288890974981,59.48349801118851,62.79843459505063
1592.0,60.8555110269011,59.2913352260893,62.86052461289031
1593.0,62.38936786238778,59.602125333640736,62.59662371249374
1594.0,63.74869355403943,60.05926662542624,61.96602530241374
1595.0,65.03285034498583,60.03479473483215,61.72402654956984
1596.0,66.096608188551,59.42413002791879,62.25019053513269
1597.0,67.27267974193877,58.865941433780236,62.9739175344156
1598.0,68.82614139710924,58.68176599057484,63.44091570503809
1599.0,70.07957668339752,58.82708954982106,63.747664736237255
1600.0,70.36041891305865,58.875259397980535,63.79538746047381
1601.0,70.08942039370223,58.574030623528955,63.32219690661805
1602.0,69.95765516989303,58.66796063080677,62.98093058389417
1603.0,69.74028908379827,59.097548517800305,63.041268113921326
1604.0,69.2076140803548,58.83882577871065,62.88594096322113
1605.0,68.40673042395787,58.04860344208535,62.38706347910247
1606.0,67.01166439702378,57.328098571676506,61.73991239938827
1607.0,65.73372221896025,56.72528099832682,61.13047759146248
1608.0,65.10672753912645,55.950935008452724,60.4085900940067
1609.0,64.50086724540574,55.172689305972554,59.93561929432835
1610.0,64.43885692820443,54.53065715148616,60.27308292115433
1611.0,65.91783377811105,53.939155728646696,60.88761469286224
1612.0,68.37020476624944,53.88935849636533,61.332062087977626
1613.0,70.78073053645097,54.716035828455944,62.01444960107648
