1.0895993055555557,70.99414923470084,70.98612529143705,70.97460250886252
1.4227979166666667,72.44738009176021,73.02949412878016,72.15962597187854
1.7559965277777776,75.71803328736091,76.11192387594282,75.16441727423738
2.089195138888889,75.41601668879382,75.40296542577457,74.89280927408748
2.4223937500000003,77.44108570445903,77.29035458034191,76.58702218764242
2.755592361111111,76.18130980145389,75.78881240896928,74.75717047029265
3.088790972222222,76.72409735059495,76.39322109317203,75.51951439737832
3.4219895833333336,74.42739156614361,73.4668990118616,73.59638917717406
3.7551881944444445,75.19918149662755,72.94169580283689,73.86328215137823
4.0883868055555554,77.95954840026697,75.57595939748079,76.34701712321854
4.421585416666667,77.15141294898815,75.09880425327303,75.81737449479212
4.754784027777777,78.70899672287094,76.66452161892738,78.1094958374621
5.087982638888889,77.51787122005996,75.57763306164597,77.3643470309142
5.42118125,78.92640629428374,76.95118388474599,79.35938123962173
5.754379861111111,77.18498576917054,75.301197160675,78.85532367956658
6.087578472222222,78.67004753468022,76.48836229955305,80.76984043332881
6.420777083333333,77.0647795017951,74.759270393219,79.0712433809728
6.753975694444445,77.80652653344289,74.96189488415165,79.662535948075
7.087174305555555,76.53674402383845,72.38931906772648,76.65781608599673
7.4203729166666665,77.00322348271563,72.18052754441433,75.75128380599183
7.753571527777778,73.99147688389898,69.57258809869509,71.45752723212807
8.08677013888889,74.3070567221843,69.89945023670397,69.37912710163658
8.41996875,76.70193206637147,72.45275333231746,69.99628715151262
8.75316736111111,75.80580480845913,71.71022949333114,68.29973041000932
9.086365972222222,77.05356806713652,73.03524126997169,68.8889697666973
9.419564583333333,74.5225219898074,71.62087850033133,66.58737756019042
9.752763194444444,74.28107377409123,71.67769957273796,66.58301459456106
10.085961805555556,75.42027195462606,73.90549800455094,68.76707781640863
10.419160416666667,72.53100032704305,72.1500794117292,67.54741556869003
10.752359027777779,72.03180065088158,72.52880648410539,67.94996936073136
11.08555763888889,69.27979856957649,69.64865307747284,65.65620408439136
11.41875625,68.29590743480158,69.50714400373928,65.69946516746464
11.75195486111111,69.53655964827811,70.65549348263664,67.24847577042291
12.085153472222222,67.94043809902372,68.47487822327916,65.95810843028056
12.418352083333334,67.89779481962368,68.43498073235159,66.2777913462802
12.751550694444445,69.56301125642221,70.60846872219705,68.86627545903455
13.084749305555555,68.43769336833829,69.66169000423933,68.59700946686885
13.417947916666666,69.70864688643366,71.36010026491614,70.87240731105426
13.751146527777777,68.31007760149677,69.34967515857015,69.83348138015549
14.084345138888889,68.76066835735496,69.87140565588207,70.28040567072982
14.41754375,70.54325527785312,72.95610054501209,72.74015915920924
14.750742361111111,69.41194188232926,72.62050342840621,71.7930405960888
15.083940972222223,70.40229911787652,74.13551588879739,73.29465939131507
15.417139583333334,68.18461607600048,71.87446427246952,71.33332657640588
15.750338194444444,68.45207433042955,71.17517999682536,71.18530273542545
16.083536805555553,70.42333661625857,72.27985274617812,73.04963541025806
16.41673541666667,69.73645612724033,69.73310239602597,71.95713312067873
16.749934027777776,70.83919632847935,70.1722471452356,72.96745278282414
17.08313263888889,69.16505932114548,67.73160251926654,71.20800885178213
17.41633125,69.24313482712729,66.92960912407817,71.05687917666334
17.749529861111114,71.22589518948293,67.67549822574435,72.92055705670653
18.08272847222222,70.47980692669732,65.81186524346835,72.20156436285963
18.415927083333337,71.22537139430368,66.52577788226536,73.83259916679161
18.749125694444444,68.66420810849368,64.55591210292108,71.93993593656872
19.082324305555552,67.60689484184982,64.73635564119589,72.13933845156038
19.415522916666667,68.68256464699137,66.59749337192358,74.42693093357482
19.748721527777775,66.89719880320312,65.26464098317317,73.93546377793606
20.08192013888889,67.32468262243168,66.1126115872075,75.55544177951566
20.415118749999998,65.50636861054933,64.12837765978,73.9410536489333
20.748317361111113,65.55498442170929,64.3347454426669,74.35254944181585
21.08151597222222,67.22190383605343,66.2834255363529,76.16394317092066
21.414714583333335,66.40273919596814,64.97901838080269,74.1845604616752
21.747913194444443,67.40620023679267,65.28493625445184,73.74838488926066
22.081111805555558,70.06293298777749,67.96850145108205,75.50313562192832
22.414310416666666,69.67785692955304,67.96753026717796,74.27294018515785
22.74750902777778,70.8579871820217,69.49769597886667,75.50706919575566
23.08070763888889,69.42297948480979,67.63989383137032,73.3932773590749
23.413906249999997,69.63879627098973,67.72081068644042,72.47935994781443
23.74710486111111,71.69211091453286,69.61011047489572,73.22613889764202
24.08030347222222,71.66092972036219,68.70655536450144,70.90444174656656
24.413502083333334,73.90499038027545,69.84814449921694,70.93913499825699
24.746700694444442,77.66529864422122,72.62240373219471,73.78984597922688
25.079899305555557,78.74658222452669,71.9748937752075,73.22552516520965
25.413097916666665,81.58601618527837,73.64493024165787,75.19313218956484
25.74629652777778,80.48334647500748,71.80229986292214,73.89962076708152
26.079495138888888,80.7865575586764,71.71821989614526,74.18348656760092
26.412693750000003,83.24355712685038,73.87024389012562,76.722140104674
26.74589236111111,82.62232209324257,73.10637722117589,76.05394864539993
27.079090972222225,84.61222621645533,74.88806536117781,76.81353179783146
27.412289583333333,82.94660728163036,74.22299464950386,74.25239819040954
27.745488194444444,83.57938780163401,76.94437749730379,74.20450432546545
28.078686805555556,82.30068173462755,75.63389410791456,71.52306951234493
28.411885416666664,83.3887337981756,76.84745090687606,71.62984788555596
28.74508402777778,80.30942506019385,74.38924603346226,69.30645639933574
29.078282638888886,80.0733225400021,74.0747476349851,69.22243992722704
29.41148125,76.02454990397919,70.1853607590109,66.4285976751715
29.74467986111111,74.6498698647274,68.26057574899208,65.48497515868947
30.077878472222224,75.16004849903291,68.41190288313571,66.30320938908827
30.411077083333332,71.75983849571087,65.01266888058508,64.57245124596659
30.744275694444447,69.80600431662897,64.06812266582472,64.81948895823916
31.077474305555555,69.81819255652124,64.68361003754737,67.2243468046264
31.41067291666667,66.61318480453733,62.33380295357016,66.53988331215024
31.743871527777777,64.91259690856802,62.07767457427006,67.59700445568494
32.077070138888885,64.73424376682428,63.33416955373546,69.97934073707171
32.41026875,61.62439610219642,62.097940762085926,68.85869317397399
32.743467361111115,60.92359033065626,62.613565252769604,69.31105198585273
33.07666597222222,62.01697657906023,64.89369123481626,71.59681120612326
33.40986458333333,60.56461574255545,63.95654330760111,70.03036963997184
33.743063194444446,61.40433901328049,64.75458173909007,70.19182560450677
34.07626180555556,64.20707367506348,67.49368822168879,72.28111869747077
34.40946041666666,64.03633647973183,67.5400126811621,71.22526869993271
34.742659027777776,66.1333014897379,69.97850926834401,72.52939050132879
35.07585763888889,65.04750434908472,68.51006278577262,71.0202270700286
35.40905625,64.86086706988681,69.13922687316386,72.10728710402975
35.74225486111111,66.37353719946948,71.72623757508903,75.0721535206071
36.07545347222222,65.48195583668969,70.98790105532036,74.36771294593812
36.40865208333334,66.90159297478083,71.83831079137727,75.31793513696496
36.741850694444445,65.53055059964706,70.09974521403808,72.90033779247439
37.07504930555555,65.76398481631699,70.1913452039032,72.86191405504098
37.40824791666667,67.98457539219731,72.07596225931914,74.80306556079347
37.74144652777778,67.3813501517484,71.44038459916929,73.49019128196538
38.07464513888889,68.3584924749677,72.47563875564752,74.78505143778236
38.40784375,71.3258429790848,75.76766559600702,78.73560631092262
38.74104236111111,71.59388992242596,75.25835716840189,78.98599290397287
39.07424097222222,73.82862650404643,76.78383767800136,81.20478084152192
39.40743958333333,72.62844769244762,74.9578032184162,79.94719985414528
39.74063819444444,73.78862978555891,75.11641084979513,80.0532389702302
40.07383680555556,77.46905965507139,77.98657093173091,82.81040776482806
40.407035416666666,78.04179948192287,77.44833088689555,81.92999189560105
40.740234027777774,80.38459954031268,79.66809397877397,83.5897748832976
41.07343263888889,79.34415036406708,77.9859403775451,81.8409547917029
41.406631250000004,81.28092420725818,79.39280794081148,81.62480045100773
41.73982986111111,79.83945246903589,77.49735547993055,77.71635694823428
42.07302847222222,79.97072365890342,77.79557010257942,77.19654189427487
42.406227083333334,82.44629815200814,80.27093945270965,79.16090591201024
42.73942569444445,80.66274265918959,79.36321742793707,77.85253029833815
43.07262430555556,81.23076272776227,80.57607288533619,79.26310862580304
43.405822916666665,78.55934917019594,78.92191410911063,77.82190939181714
43.73902152777778,78.4078380099558,80.19208477341398,78.62480038998449
44.07222013888889,75.64787145651054,78.14075734243,76.3433414834214
44.405418749999995,74.62317813480718,77.74979685748315,76.30085976931977
44.73861736111111,76.10251305095726,79.84144815850343,78.31016293091047
45.071815972222225,74.86759712731892,78.565518091406,76.23335147734696
45.40501458333333,75.87546111645989,79.47560217700271,76.29033058917008
45.73821319444444,74.50237486580723,76.9497091071089,73.57005576738001
46.071411805555556,75.53185994565575,76.49534243100315,74.0269120791143
46.40461041666667,73.49463508401396,72.52360428236359,71.17469388515039
46.73780902777778,72.77154354642632,71.37919786535954,70.55588408407145
47.07100763888889,74.0560591090571,72.46915322255109,71.27639509756906
47.40420625,72.88187484355318,70.9263944355502,68.89111174190577
47.737404861111116,73.48218055900945,71.16847794793223,68.55891290455047
48.07060347222222,70.65565511944295,67.82093408612289,65.22240757225029
48.40380208333333,69.39205882759029,66.98738221930275,63.966855600276475
48.73700069444445,69.56133766238342,68.17506441498087,64.72070837743411
49.070199305555555,66.66970419763973,65.99182373344566,62.42630977574014
49.40339791666666,65.7902358168132,65.61396517653772,62.07485743094351
49.73659652777778,66.79587169155806,67.41387589553872,63.047762782672486
50.06979513888889,65.38064481018075,66.33603311020573,61.903019544920156
50.40299375,65.87156921965818,67.26133051474812,63.22224524847445
50.73619236111111,68.35169396806738,69.5764468228666,66.3963769929316
51.06939097222222,68.0565335725964,69.08262125186462,66.56968036658128
51.40258958333334,69.48127064533907,71.13543068724744,68.86717673783528
51.735788194444446,68.47488952916163,70.26190769395448,68.27135999589358
52.068986805555554,69.44680041965985,70.96093713421011,69.47459669372896
52.40218541666667,72.9483828653732,73.91864547561126,72.04526821733867
52.735384027777776,73.00117383256224,73.26805813401613,72.13735483354236
53.068582638888884,74.95342506598686,74.72645693394647,74.28759230084938
53.40178125,74.03016238247417,73.06034954902182,73.06455721652378
53.734979861111114,74.97388372493977,74.3833859550138,73.98892153230281
54.06817847222222,72.41449600304743,71.69010577359425,71.61483156103536
54.40137708333333,71.72954017932423,71.45215976488953,71.80198120203613
54.734575694444445,72.51791377162439,73.78565596411627,73.29850967161562
55.06777430555556,70.35443733723736,72.7605925472487,72.18237845948298
55.40097291666667,70.59974433433892,74.2461665708137,73.58288786221314
55.734171527777775,68.23051784180012,72.51438400226654,71.6070993595363
56.06737013888889,68.14462550464351,72.59053079118897,71.26187622181601
56.400568750000005,70.04427341994933,75.0265371399754,72.84294677290215
56.733767361111106,68.55499806901851,73.85256643553956,71.21592768052349
57.06696597222222,69.0077587889648,73.99321368309023,71.55818081434934
57.400164583333336,71.97596007374477,76.30980381033729,74.31814228636507
57.73336319444444,71.83654750076705,75.75968489132084,73.39786758424273
58.06656180555555,73.96612863784203,77.78330119432215,74.84097200101291
58.399760416666666,72.66918991270092,76.41821288487883,73.01309222913913
58.73295902777778,73.4792278423607,77.11191391001248,73.27251640377784
59.06615763888889,75.4006866422371,79.60370781341776,75.8036635793185
59.39935625,73.86621603999362,78.1326245869088,74.59845934467197
59.73255486111111,73.97831470806615,78.70150409277517,75.06142881044575
60.06575347222223,71.15649408385453,75.88691305250293,72.25938288512496
60.398952083333334,71.03781691216653,75.48986090841788,71.03288524714333
60.73215069444444,72.43051491856454,76.99927351408229,71.46186472051154
61.06534930555556,70.39352258706504,74.89340257080593,69.29390285512649
61.39854791666667,70.87335232093383,75.37510068074425,69.3625545829773
61.73174652777777,68.82917271032477,72.09132822629189,66.50278954364539
62.06494513888889,68.29238433730468,70.75009645244512,65.34387130594335
62.39814375,69.41340147372675,71.37186409757413,66.18565678712716
62.73134236111111,67.94285652427136,69.17631051693006,64.2619192399952
63.06454097222222,68.22395853730198,68.7377186568294,64.01951985115768
63.39773958333333,70.09848276965118,70.14878466867731,65.02084537387762
63.73093819444445,68.90126268208684,68.02145736443407,62.513998916219194
64.06413680555556,69.44297310893711,68.4423395493786,61.644573550408104
64.39733541666666,71.68842256749687,71.03918779196707,62.93059828043043
64.73053402777778,70.55854648693192,69.83233321460617,62.108060667778126
65.0637326388889,70.8449324807225,70.13021594372988,63.52931046637076
65.39693125,68.26307394322852,67.62737957484238,62.015777786707304
65.73012986111111,67.37264345839563,67.91183354508568,62.03717087449896
66.06332847222222,69.14219289934213,69.9778713725959,63.95462568316274
66.39652708333332,68.3364046672335,68.60828959094172,62.86938055394076
66.72972569444445,69.19848899692313,69.40281084285273,63.67959329155693
67.06292430555555,71.46513132038963,72.00331370574118,66.51302059613725
67.39612291666666,71.08027420737913,71.51476029083175,66.60889275375028
67.72932152777778,72.95350890323012,73.34270496945635,68.86167535887002
68.06252013888889,72.09508060382662,71.90176099403595,68.63634559553698
68.39571875,73.33989868194458,73.32424998430986,71.25064452187104
68.72891736111112,71.91918759048964,72.28268951777909,70.61916210704558
69.06211597222222,73.30245054037391,73.52838762585989,71.78000996716388
69.39531458333335,71.20670647083611,70.89015917714877,69.60521184390794
69.72851319444445,70.6789264616784,70.1534303431344,69.59920414016194
70.06171180555555,72.82665908058051,71.29188249309618,71.54802908032109
70.39491041666668,71.97449631506441,70.09938024534078,70.55054774398894
70.72810902777778,72.72911565226667,70.8253686906223,71.56877802486254
71.06130763888888,70.99217810261825,68.5698830654809,69.06882003953363
71.39450625,70.92961993105821,68.1760013437116,68.9991098999315
71.7277048611111,72.89526033920323,69.47436878861589,71.55845029916502
72.06090347222222,71.78346067651978,68.11533090540273,70.57049965216632
72.39410208333334,72.00411833556282,68.79472012468177,71.94385690768699
72.72730069444444,69.23567877947256,65.7025445420483,69.58881197370025
73.06049930555557,67.91184385048808,64.66002510751721,69.53909762056955
73.39369791666667,68.93260575228408,65.34553222915083,70.3452550896172
73.72689652777777,66.6218917161206,63.127894518978366,67.6927430319623
74.0600951388889,65.93503084259861,62.6993641598383,66.82022023477005
74.39329375,67.48522193888904,64.13181636894207,67.8041884067361
74.72649236111111,66.25796115091597,62.87167675166132,65.42268771441468
75.05969097222223,66.27365287233575,63.117795128693444,65.27966969350227
75.39288958333333,67.6687888958298,64.60189551244746,67.5502965966968
75.72608819444444,66.3974673896706,63.75059523980775,66.84516799684253
76.05928680555556,66.61101983414959,64.85399798230657,67.74641002911424
76.39248541666666,64.18216236792914,62.71029867978069,65.38990382117817
76.72568402777779,63.46834222769135,62.273299976145694,65.42412377890092
77.05888263888889,64.40824362595289,63.998131363781745,66.98859735405561
77.39208124999999,62.72271893304428,62.84789429519161,64.62185488980147
77.72527986111112,62.88000391508662,62.98270423012165,64.21723444012854
78.05847847222222,64.40181801159649,64.65493709360058,64.9604313128263
78.39167708333333,63.38424926761817,63.43198133207119,63.92824541538752
78.72487569444445,63.914795692235096,63.74660843337054,65.06423850001784
79.05807430555555,65.50979843089695,65.49307663443517,68.30714689880438
79.39127291666667,64.61188179148547,64.68962869341549,68.09180637886652
79.72447152777778,65.29951053122925,65.4413171494789,69.10951210207344
80.05767013888888,63.264739668149225,63.047484702024484,66.85051821097822
80.39086875000001,62.90264126889938,62.41424351393029,67.02909148363985
80.72406736111111,64.86832993261851,63.56328624504031,69.55153257524269
81.05726597222221,64.00753180661016,62.000742990943685,69.2580625043238
81.39046458333334,65.25001945446112,62.94902717714169,71.08670264913943
81.72366319444444,63.30043801161083,61.492616903436954,69.1100359147682
82.05686180555556,63.35352058741749,61.97834650830249,68.55946299132009
82.39006041666667,65.70119290457964,63.70857990131027,70.2202937913032
82.72325902777777,65.58187885019112,62.27640079977498,69.61697795245941
83.0564576388889,67.20846282127575,62.923910437991935,71.25932653040158
83.38965625,64.99071444495819,61.15815359461451,69.971385990492
83.7228548611111,64.44672663720672,60.875665432817556,70.43586899479818
84.05605347222223,65.97969564817498,62.18387212212062,72.09638134855982
84.38925208333333,64.07578917207161,60.1330509968386,69.19216936274817
84.72245069444443,63.9378537321309,59.72763763262441,68.12325337362226
85.05564930555556,65.45737895771627,61.32188671204697,69.54682190680356
85.38884791666666,64.49827473574861,60.002563907247485,67.22970506141952
85.72204652777778,64.66591084330209,60.27264843560624,66.41535064796672
86.05524513888889,66.04677856750828,62.081231930423655,67.63097675106266
86.38844375,64.46355317011307,61.10646063948089,66.1076784369993
86.72164236111112,64.43752330653464,61.6813679783413,66.69971657895297
87.05484097222222,66.35218833125623,63.32420721362027,68.5850087228949
87.38803958333332,65.67955751969797,61.933114666895854,67.58083215831256
87.72123819444445,67.41752543866934,62.18616966110656,69.09882495249627
88.05443680555555,65.89083143187175,60.609130105409236,66.80101021515652
88.38763541666665,65.9107747234037,61.06793353060583,66.49053826109211
88.72083402777778,67.50201828833403,63.493737510969105,68.36219275636826
89.05403263888888,66.60354335894377,62.82687481393318,66.31412117051885
89.38723125,67.03656017859925,63.35525044091274,65.97980598457582
89.72042986111111,69.40025620519356,65.74059932243054,67.32928229456313
90.05362847222221,69.1473775907081,65.35497960239522,65.81241801036911
90.38682708333334,70.8036692142022,67.19812544141948,66.32555397309984
90.72002569444444,69.27019605831453,66.42107858368463,64.10885902382726
91.05322430555555,69.04262981631251,67.22196038370144,64.02267703568991
91.38642291666667,70.52427973769785,69.31574319817862,66.20431802901021
91.71962152777778,69.2819120009786,68.02451940638734,65.6380462193019
92.05282013888889,69.52278390796593,69.07661288474065,66.67522980586061
92.38601875,67.1866549556974,66.78456109550956,64.34834065218696
92.7192173611111,66.88025202425214,66.63617618910635,63.73797139321478
93.05241597222222,68.93341252284323,68.24376796056876,65.66969964867366
93.38561458333334,67.8557610293616,66.04450464252004,64.49984274215957
93.71881319444444,68.52065470804065,65.58369612793774,65.39616959803267
94.05201180555557,71.31475537818112,67.59441129049013,68.0054082317998
94.38521041666667,70.64561631193357,66.9284270787891,67.04217136352372
94.71840902777777,71.9575117052366,67.89216018717437,67.61773953594323
95.0516076388889,75.18654952290123,70.75689454831537,69.98931386241767
95.38480625,75.27602686122367,70.03632088059399,69.36569739325604
95.71800486111111,77.05200803919632,71.2404112822266,70.80903804776769
96.05120347222223,74.97090354405769,68.91842772222174,68.8627980609705
96.38440208333333,75.24173766753756,68.65296173499144,68.65679669276406
96.71760069444446,77.135128954043,70.78532796564444,70.27043868030248
97.05079930555556,76.1639570049892,69.86888674028259,68.9048560569894
97.38399791666666,77.57827832341522,70.93606931474226,70.1663786462097
97.71719652777779,75.28948443857718,68.3765485798061,68.72476107535094
98.05039513888889,75.30595610616948,68.23306263403526,69.90704728895155
98.38359374999999,77.64071623911977,70.17958672939972,73.38975328106743
98.71679236111112,77.42550713484765,68.5353312807492,73.767805659458
99.04999097222222,79.45946616428967,69.56490940871488,76.01323597998827
99.38318958333333,77.74580050438728,67.78302332522678,74.88588096497891
99.71638819444445,77.85527052484724,67.78932093933959,75.19706089477899
100.04958680555555,74.4014491648626,65.20222041848795,71.48514470196787
100.38278541666668,72.66536834683063,64.84802091476458,69.40538667570945
100.71598402777778,72.82994890275985,66.75230191348864,70.07986839905816
101.04918263888888,69.4726278920557,65.2446961158635,68.1758556842485
101.38238125000001,68.68100828176257,65.6609678184806,68.7787159076593
101.71557986111111,69.38052697604702,67.69600093849918,71.33485869674188
102.04877847222221,67.31170146593071,66.7503836025632,70.78115050176378
102.38197708333334,67.20020747444899,67.41023873584473,72.28164550046752
102.71517569444444,65.06131688713532,65.07797613928788,70.53760566360896
103.04837430555555,65.17701427663133,64.82595422236464,71.21136108026546
103.38157291666667,67.16457306407612,66.49716725811909,73.75801772946683
103.71477152777777,66.28265107636825,65.15476709293239,72.5908200913965
104.0479701388889,67.0529174520901,66.47141226943978,73.2483665090874
104.38116875,69.66095223870471,69.8811510719085,75.764807657333
104.7143673611111,69.39300017968108,69.85425994055339,74.84650805786401
105.04756597222223,71.45841244472312,71.82748419682008,75.80106837438758
105.38076458333333,71.0928241329774,70.9339557346935,73.26834922121253
105.71396319444445,72.73346773176569,71.65009442736577,72.79921072073998
106.04716180555556,76.37217725961663,74.69463709772226,74.7879683567294
106.38036041666666,76.89400063563023,74.76334691272469,74.0040834024689
106.71355902777778,79.72643481795929,78.08725221146803,75.46672991324186
107.04675763888889,79.15147749949841,78.1284456269294,73.79410902334283
107.37995624999999,81.29020868661487,80.0145840710486,74.3629985045202
107.71315486111112,80.22531945958457,78.93070833241785,72.45499698700525
108.04635347222222,81.09190180493557,80.54341552401692,72.7173235910857
108.37955208333332,78.68970665438867,78.0417177122037,69.98430233904492
108.71275069444445,78.98483048009939,78.52213765493906,69.95220828977426
109.04594930555555,75.9205995715558,75.0350925919947,67.24155303957818
109.37914791666667,75.20094177497161,74.39479565817342,66.90035531239734
109.71234652777778,75.5383702678198,76.21051207668842,68.4026002248708
110.04554513888888,73.01137953965394,74.37247473194675,66.91405925998778
110.37874375,72.62969776582953,74.7099244648772,67.79327057166292
110.71194236111111,69.52427123642556,71.96651487498596,66.29154715087002
111.04514097222221,68.48311780155292,71.5637405524632,66.51647940461517
111.37833958333334,69.05501195217352,73.3528873214535,68.98027786942632
111.71153819444444,67.22776924436263,71.52670339156383,68.35868692011064
112.04473680555554,67.75311448006025,71.86554490907773,69.71761797250339
112.37793541666667,65.3736581663028,69.61074817027063,67.67601427298915
112.71113402777777,65.30135043763988,68.75394919104397,68.00849439107479
113.04433263888889,66.88856178482621,70.43232417571859,69.69691754928729
113.37753125,65.85562284028457,69.39590375676869,68.1828227362167
113.7107298611111,66.39735038559627,70.47325889685007,68.65605180851738
114.04392847222223,68.73820152028983,73.5145881865851,71.39330331900315
114.37712708333333,68.40112299587915,73.04233523461778,71.00769840368129
114.71032569444444,69.90293446312901,74.03582530704877,72.30735317824453
115.04352430555556,68.51843507140309,71.25068703656191,70.40761435129805
115.37672291666667,68.69959516488541,70.35381081686425,70.63372249177239
115.70992152777777,70.88269326809797,71.37523550764097,72.3969121944667
116.0431201388889,70.28501474285169,69.46430179290604,70.87391708590155
116.37631875,71.3336752198292,70.26215884522779,71.66675869889251
116.70951736111111,73.67624964312137,73.54578930845298,75.02013723974612
117.04271597222223,73.18644098205203,73.45458995198112,74.93418485842611
117.37591458333333,74.95193861784698,75.71895029480994,77.4405997645454
117.70911319444446,73.82727617451094,74.14264573764314,76.09729839949881
118.04231180555556,74.22160421692885,74.81711026793812,77.01786532350229
118.37551041666666,71.65138506855969,72.08380017843326,73.73926273709604
118.70870902777779,70.45107359089596,71.60653140392455,72.46015450652759
119.04190763888889,70.55927835740447,73.56956352064896,73.14306574902672
119.37510625,67.78406383399287,72.02623572852966,70.31189840923466
119.70830486111112,67.12481174706043,72.49495529922282,69.8823223945374
120.04150347222222,64.39357957377844,69.05554684100937,66.60423813869268
120.37470208333333,63.554699480039275,67.44283486695198,65.33828020602462
120.70790069444445,64.86079911558028,68.04406689641397,66.51915114558007
121.04109930555555,63.74900659763014,65.71716103007918,64.51010533620874
121.37429791666668,64.54220901610137,65.4168921449465,63.856787377722185
121.70749652777778,66.85023572795474,66.89108436756318,65.1500213909433
122.04069513888888,66.7573852590358,65.10173430506936,63.602714776833935
122.37389375000001,68.01205633880329,64.61199663684383,63.75820703495916
122.70709236111111,70.30472836660734,66.49000957684757,66.37002972270771
123.04029097222222,69.75791946577867,66.26717607677081,66.50399256335719
123.37348958333334,71.16665734828439,68.15184080638814,67.72345088782627
123.70668819444444,69.36882236421232,66.66058313203911,66.46689766076182
124.03988680555555,69.65729376020687,67.1796825026864,67.01823691638701
124.37308541666667,71.50364210082527,69.70443180387234,69.24660986960099
124.70628402777777,70.76698613286749,68.98391944186282,68.67960182248076
125.0394826388889,72.10140752012369,70.60693441292152,70.41765184968537
125.37268125,70.11561856973742,68.67689201206898,69.29876693647884
125.7058798611111,70.56127945085478,68.68336399278469,69.98177997646003
126.03907847222223,72.78632012506985,71.5665406962573,72.0079390361558
126.37227708333333,72.10894277399989,70.72280580654542,71.1712682503774
126.70547569444444,73.8018570191289,72.82210814393095,73.53449551339806
127.03867430555556,72.46452655668371,72.27672185397192,72.85673303595591
127.37187291666666,73.29508128738657,73.62284607413231,73.91204717274506
127.70507152777779,71.25327073386597,71.11188073842109,72.0547994301011
128.0382701388889,70.66874992559602,70.99634951411481,71.65699641074815
128.37146875000002,72.11172624934085,72.91441158979745,73.09878362830777
128.7046673611111,70.69429706333118,71.19020699664699,71.23698313798454
129.03786597222222,70.76866592947675,72.24479954930801,71.77168903955638
129.37106458333335,67.9632034996872,69.80195280352551,68.53833418144389
129.70426319444442,67.72143244127618,69.5374425910481,66.65871952294924
130.03746180555555,69.43539099673055,71.26586108896635,67.62269419802995
130.37066041666668,68.42767341203539,69.31230452844709,66.15679595029636
130.70385902777778,69.3127244801492,70.0924474165371,66.96308543007821
131.03705763888888,72.20053812419626,72.84396518999549,69.99600553776126
131.37025625,71.68954423791918,72.36471808643198,69.83036023138817
131.7034548611111,73.52667291705609,74.26003340188967,71.68703443892626
132.0366534722222,72.57084227981534,73.25675237089293,69.89107211976645
132.36985208333334,73.23810075721082,74.97273929140934,70.607812172252
132.70305069444444,75.88339855009495,79.08840408777009,73.68246449545867
133.03624930555554,75.8603324523849,78.8033421243499,73.45193463701864
133.36944791666667,78.38214462924405,80.5708028070372,74.6148329552501
133.70264652777777,78.3369430113375,78.39652046156446,72.9105383046872
134.03584513888887,80.3365941521915,78.94597691782552,74.00241809147923
134.36904375,79.03073651350397,75.86863518394972,71.82309894422069
134.70224236111113,79.31367024824964,75.27411650385382,72.14055865413488
135.0354409722222,81.42891657153825,77.34482325332024,74.51595222705613
135.36863958333333,80.26021245793817,76.37018381140449,74.11660922255724
135.70183819444446,80.97527267623784,77.45909899057193,76.17780471557478
136.03503680555554,78.21798823347795,76.4315960000899,74.76218876920012
136.36823541666666,77.69248073405605,77.85758752608632,75.4313513306833
136.7014340277778,74.42332249295241,75.77274792217666,72.34787513655066
137.0346326388889,73.5708411739746,75.52954916432067,71.6414289793379
137.36783125,74.9052996497738,77.47955638179388,73.97762113493467
137.70102986111112,73.0810746180313,74.97643156069363,72.35621326843982
138.03422847222222,72.62314595942885,74.86922096318176,72.53602298533015
138.36742708333333,69.30265562578336,71.57349757852243,69.20148043422593
138.70062569444445,68.37888549502807,70.40809347812963,68.04035129561909
139.03382430555556,69.3245534503267,71.58588839604236,69.7391863468905
139.36702291666666,67.00712566338294,69.24253105311737,67.91633159538506
139.70022152777779,66.17768568750952,68.38758641858058,67.27662039457182
140.03342013888889,66.73208108454436,69.8753300225889,68.72308502843116
140.36661875,64.94537986099057,68.2094991659524,67.09877359053048
140.69981736111112,64.80435145244215,68.45317120475562,67.1576349735408
141.03301597222224,66.28670388425007,70.34335566374682,69.33557516506276
141.36621458333332,65.17954623596705,68.74427092952611,68.90966468051987
141.69941319444445,65.6798522301087,69.78000401530686,70.60420769054666
142.03261180555558,68.56878436011958,72.8015504771353,73.39146684321874
142.36581041666665,68.20079801093547,72.00134577466518,72.3674823895386
142.69900902777778,69.58441974821038,73.12689163749323,73.36836280773484
143.0322076388889,72.88364132690715,77.19422847697936,75.73393847534962
143.36540624999998,72.99340357928723,77.67365132958523,75.18515785080739
143.6986048611111,74.3499901704173,79.9107969995532,76.77198440885681
144.03180347222224,73.07501609052855,79.25858293604557,75.58252083584523
144.36500208333334,73.57619932176839,80.31872113200389,77.00298250165473
144.69820069444444,71.52762170527791,77.44990990786019,74.93787978333239
145.03139930555557,71.3959329140848,77.24935418959723,75.20022555011573
145.36459791666667,73.37283956447378,79.20148150905294,77.68095008463688
145.69779652777777,72.56858861854103,77.83771690982223,76.93182322729226
146.0309951388889,74.22284726002854,78.8194425677354,78.84052742309535
146.36419375,73.64878070510547,75.79804274594521,77.27592559058567
146.6973923611111,74.68801481423426,74.84032810954642,78.25341355610593
147.03059097222223,72.84298359485739,70.47281382072538,75.91825230551832
147.36378958333333,72.74256094880685,69.05195820346351,76.45456300510519
147.69698819444443,74.2290879113809,69.81038888022303,78.25612974658014
148.03018680555556,72.2732712663233,67.52723405137236,77.3091783343033
148.3633854166667,72.94175603454674,67.49567048506395,78.11053463481223
148.69658402777776,71.02719113575766,64.65109729169127,74.82920324621622
149.0297826388889,71.03302334672391,64.28576457687046,73.52016933849391
149.36298125000002,73.23507652962425,66.05450525806047,74.29412771597173
149.6961798611111,72.3607762857621,65.33863777861933,72.18296886126747
150.02937847222222,73.76593695996118,66.45016735846512,72.61288980078464
150.36257708333335,76.73286916671258,69.28883374823525,75.22549299940708
150.69577569444442,76.45006799071052,68.6544321215119,73.71175575736774
151.02897430555555,79.18162174062003,70.5456709161525,74.63903819725547
151.36217291666668,78.89567233842597,69.2606058168275,73.52746884576527
151.69537152777778,79.88984591931381,69.79036352966993,74.81549981967235
152.02857013888888,81.94022979968415,72.11274653367214,78.49034404658057
152.36176875,81.07887048593092,70.99995678958743,78.93026751387254
152.6949673611111,81.94503273733001,72.54261824087752,81.23912500928296
153.0281659722222,79.68358851356236,71.85750400215663,79.38294647366556
153.36136458333334,79.90094545000603,74.42175855853665,79.77985319520654
153.69456319444444,77.49475825280769,74.60209834675437,76.31730133081696
154.02776180555554,77.61463747754756,76.1033180277477,75.41175767992962
154.36096041666667,80.47079170712937,79.6566293395387,76.73109754711282
154.6941590277778,80.2570173022207,80.42028513119357,74.5654355985626
155.02735763888887,82.05877938833653,83.49448360158253,76.38219442433349
155.36055625,80.38281190906437,83.29401947663754,74.9559601664415
155.69375486111113,80.93560438025035,85.16479459660457,76.20387533580246
156.0269534722222,78.13778594413802,82.8694581093089,74.642010037552
156.36015208333333,77.93451868783134,82.1968386838029,75.20972687451916
156.69335069444446,74.39014311963521,78.05442486515892,72.72042599971537
157.02654930555553,72.87920483555592,77.16700599379224,72.9136048373281
157.35974791666666,73.5713160077734,78.07074919654008,75.23303683160704
157.6929465277778,71.68687148074359,74.94729956160438,74.02400937790274
158.0261451388889,71.25075521423805,74.54928376027019,74.170702800031
158.35934375,67.7341013607204,71.09904604448086,71.09453167592596
158.69254236111112,65.81596216428363,69.64114024471341,69.75577536986792
159.02574097222222,65.74526517753927,70.22953472485418,70.58618417547297
159.35893958333332,62.93859287581236,67.32029586328684,67.8250342506892
159.69213819444445,62.65305349503646,66.17482710386965,67.5476370461912
160.02533680555555,64.96188009077977,67.75715253201211,68.68725931607695
160.35853541666665,64.60075956195023,66.71200808811894,66.35602094187466
160.69173402777778,65.46586357124195,68.3578982631755,65.32743066041147
161.02493263888888,63.63250946601063,66.6453100131147,61.859556158960395
161.35813124999999,62.83157983118312,67.07377084947113,60.732967270989825
161.69132986111111,63.21913999235135,69.07545808740844,61.606427434818364
162.02452847222224,61.32115891713501,67.87945063489488,60.266776236167644
162.35772708333332,61.355799740074715,68.33644373357338,60.65920135121238
162.69092569444445,62.68306002323424,70.3413728501212,62.79678183977808
163.02412430555557,61.793963977916675,68.63945994670676,61.60563101969394
163.35732291666665,62.27468643375195,68.69840538573621,61.821967958480826
163.69052152777778,64.31920365671076,71.8298908746354,64.01724922012257
164.0237201388889,63.839657127075526,71.15269447106523,63.36945744213442
164.35691874999998,65.30357388409573,71.70809234727358,64.79267673967308
164.6901173611111,64.31329954615666,68.88746408615722,63.20000011255399
165.02331597222224,65.28398926003791,68.79998569959467,64.3450895854389
165.35651458333334,67.31063251866203,71.51320154132091,67.34110698841857
165.68971319444444,66.67601722388308,71.0050514398395,66.6349428707164
166.02291180555557,67.64577293768792,71.91329779209813,67.45569574329213
166.35611041666667,70.989135788019,74.80732778047154,70.4930254214447
166.68930902777777,70.9631349653964,73.49298123666524,70.88813622302688
167.0225076388889,72.58629263666424,74.71221292014246,73.58245722703514
167.35570625,71.04679593817222,72.40561156682229,72.62751181553799
167.6889048611111,71.73567558583837,71.97199382769426,74.07797595109264
168.02210347222223,69.88086956548162,68.09917199792248,72.50361712706739
168.35530208333336,69.74917450483613,66.70179972784373,73.00388304049869
168.68850069444443,71.42052250520685,68.08649224599066,75.67266918358851
169.02169930555556,69.36521003995634,66.67969951159452,74.16209704461346
169.3548979166667,69.67805645721866,67.15669361546713,74.40168218219678
169.68809652777776,67.93814676886406,64.3167994696528,71.03194515429962
170.0212951388889,68.35322561540535,63.46041114700109,69.63319234167581
170.35449375000002,70.04718433079103,64.18237157499303,70.44415124699373
170.6876923611111,68.47421338115929,62.0376951926397,67.8863106310706
171.02089097222222,68.5099807407164,62.400385133472426,67.80131983417624
171.35408958333335,70.6285944935331,64.84638558526731,69.79575830971856
171.68728819444445,69.7718598457496,63.70419605227233,68.34214746668566
172.02048680555555,70.19146543980364,64.44545828929063,68.19498753287323
172.35368541666668,71.98426583023017,66.71010941970908,70.18337481411812
172.68688402777778,71.35352167574247,65.37190578666747,68.42821942225763
173.02008263888888,72.552475694397,66.51048292902237,68.95261148326517
173.35328125,70.95213451014952,64.77663334000339,66.25009361370579
173.6864798611111,70.40577935786139,65.15299629732691,65.94116279285666
174.0196784722222,71.82413655700287,67.56098269787803,67.51209915662398
174.35287708333334,70.30984707642905,67.38014818588674,66.04831057457444
174.68607569444444,70.61090883008453,68.8049270516918,66.61846281228507
175.01927430555554,72.80427533254478,71.70949874509321,69.01170167620846
175.35247291666667,71.2963497678974,70.75042300946713,68.49786576442469
175.6856715277778,72.26631362784285,71.67326263468573,70.25479596847461
176.01887013888887,70.04549621065888,70.06340308770297,68.43797438371165
176.35206875,70.05266180035562,70.3619129621369,68.55887291095212
176.68526736111113,72.37288645436989,72.42879810931355,70.80404386300602
177.0184659722222,71.36195725688685,70.96302484023913,70.24139384429932
177.35166458333333,71.6034082010804,71.59294941881173,71.3635574679786
177.68486319444446,69.37228585558964,68.99185701081858,69.08376275809471
178.01806180555553,69.09272452658057,68.39178570731166,68.57263138196632
178.35126041666666,70.89095151699249,69.4167993674605,69.96806538348119
178.6844590277778,69.89125138944996,67.39875907578264,67.9105584811562
179.0176576388889,70.78991585129847,67.71914498290062,68.12757254421162
179.35085625,69.46435566640596,64.93387692555424,66.07173561261942
179.68405486111112,69.8333431659714,64.41402468440181,65.70513523508605
180.01725347222222,71.71661344664507,65.4278334819678,67.16765149372178
180.35045208333332,70.19074372191177,63.9745156460622,64.90910614941394
180.68365069444445,70.1976447241541,64.66870156800579,64.85701571428602
181.01684930555555,71.50931357076718,67.0102938478939,66.54365521162289
181.35004791666665,69.61716363548683,65.80029115832065,65.59127458190281
181.68324652777778,69.29436979931074,66.60320689971849,66.31983154901174
182.0164451388889,65.67047229766293,64.49514726900543,64.00508254900811
182.34964374999998,63.76980048037115,63.834939054265575,63.17813611933104
182.6828423611111,64.01283993269837,65.02137923860558,64.54936381722402
183.01604097222224,61.559824049564085,63.03921586647351,63.18613834602837
183.34923958333331,61.288029699359534,63.461704053985976,63.89510846999526
183.68243819444444,63.07288553408971,65.03245191140743,66.3989231668551
184.01563680555557,62.08370551674155,64.0239516230436,65.63748612572823
184.34883541666665,62.64678566376309,65.06774804118108,66.00313567715607
184.68203402777777,64.79806347754884,68.48888080925546,68.36354640760572
185.0152326388889,64.01440576908062,68.36279932737445,68.18895595768272
185.34843125,64.902249719763,69.73007047760183,69.40827136680417
185.6816298611111,67.19618042430815,72.79159537387648,72.70761771172765
186.01482847222223,67.18054121286039,72.56324186415135,72.851759365958
186.34802708333333,69.087000853538,74.31470016246652,75.03017865205757
186.68122569444444,68.18018935604448,73.13288481122716,73.59851060542402
187.01442430555556,68.94764920350495,73.84165712893441,74.58164607215373
187.34762291666667,66.67428330110754,71.89207788887016,71.93422021181891
187.68082152777777,66.69391769025275,72.05248630119364,71.1937425268036
188.0140201388889,69.0264223340192,74.19525245227575,72.3061647841408
188.34721875,68.18737396247825,72.86289585477216,69.99091410447897
188.6804173611111,68.78415883345825,73.96610404735037,69.72458742325591
189.01361597222223,66.61191625743997,71.39489067630745,66.530925573184
189.34681458333336,66.22650678105526,70.96306507259645,65.21726187765653
189.68001319444443,68.02532247534924,72.11408535208744,65.94777812808113
190.01321180555556,66.73193808264239,69.97814388458481,63.61139939717473
190.34641041666669,66.93501171449357,70.37352252794835,63.13149032734096
190.67960902777776,68.92296895682452,72.27518918835003,64.64444140406125
191.0128076388889,67.92508955064721,70.63445237413563,63.46682683962718
191.34600625000002,68.49855789299681,71.3409830631068,64.08681308897425
191.6792048611111,70.71018871237014,73.9149239714692,65.98516539638632
192.01240347222222,69.78216760961192,72.92912648769078,65.33734136003206
192.34560208333335,70.60767676079345,74.2643428203039,66.8650615010057
192.67880069444445,68.57485463202823,72.16837480508092,65.3553461637861
193.01199930555555,68.58398113284369,71.95168853361247,65.79064194474789
193.34519791666668,70.72437622352662,73.10298656566594,67.96931063077278
193.67839652777778,69.63538139558113,70.66949468847584,66.58382211220672
194.01159513888888,69.77277990721066,70.21157020343392,66.89102164503856
194.34479375,71.87268213287281,72.062140955837,68.74500100572995
194.6779923611111,71.34288459964343,70.93630342093181,67.92341914315116
195.0111909722222,72.28506727337982,72.19891036757325,69.68590600544397
195.34438958333334,70.3669193355621,70.35555167180377,67.89575945821174
195.67758819444444,69.91643426059821,70.83937680037138,68.62607003340196
196.01078680555554,71.39333112656735,72.68141340477617,71.33480601133031
196.34398541666667,70.07443512676866,70.08987901932343,70.22294414023892
196.6771840277778,70.23017890537223,69.99302216412899,71.0024363020455
197.01038263888887,67.60055034832972,66.6540581715665,68.98164462510064
197.34358125,66.99609839922641,65.9246171278125,69.8960249095649
197.67677986111113,64.13367890965637,62.63035575948135,68.38301347677823
198.0099784722222,63.00131457490411,61.470876981796685,69.04542324127605
198.34317708333333,64.1989288574392,62.56782243621933,71.10677653749667
198.67637569444446,62.76925571345488,61.295123467724295,69.41716882542937
199.00957430555556,63.04206811750096,61.64993184527373,69.07967863089166
199.34277291666666,64.9535161562708,63.480188259794716,70.95956512416002
199.6759715277778,63.93588569581134,62.389393155857015,69.30892549096359
200.0091701388889,64.77570396872245,62.972280674931625,69.73684235724497
200.34236875,66.7898664284653,65.2568082971116,72.12390661646317
200.67556736111112,65.31487848517756,64.33039393449987,71.29559655437751
201.00876597222222,66.08948218189926,64.53959135222203,72.54418670259342
201.34196458333332,64.34270867002965,62.284480373913716,69.89245619377176
201.67516319444445,64.62843072164858,61.77403314986359,69.55206789018173
202.00836180555555,66.46001414886733,63.132595539746866,70.69385954100919
202.34156041666665,65.42181846689222,62.2164873523466,68.66930327044965
202.67475902777778,66.00625685363487,63.499144601882584,68.25804221195848
203.0079576388889,68.60178128468108,66.75456048061898,69.71837951098931
203.34115624999998,68.75765500624217,66.61091570731199,68.6626936369692
203.6743548611111,70.78126364161625,68.92706658981268,70.37241342373011
204.00755347222224,69.77021307333584,67.85622638420891,69.7372930537749
204.3407520833333,70.76479422654805,68.73550256097289,71.31134416820744
204.67395069444444,68.76760799852143,67.20930395351482,70.10125005920618
205.00714930555557,68.46803982106088,68.01711858618593,71.02012864764245
205.34034791666664,70.46100534432944,70.82472121001325,73.94504364665775
205.67354652777777,69.8507125299374,70.42877863842267,73.14571762523231
206.0067451388889,71.15742423858072,72.14647766477908,74.6538100570764
206.33994375,69.43153849265326,70.93538944411246,73.36860348143523
206.6731423611111,69.93072883466048,71.87625100291503,74.21514351829849
207.00634097222223,67.82068800420811,69.09838486487416,70.84669886932983
207.33953958333333,67.65941458077619,68.9455532819166,69.2935541708723
207.67273819444443,68.67453199692169,70.79771523940093,70.29457721700751
208.00593680555556,66.45858654230263,69.75786758601659,67.99900495078555
208.33913541666666,66.30157028773748,70.69080639367454,67.80851272850154
208.67233402777777,66.89134714174727,73.07559172278489,69.68842166810126
209.0055326388889,64.41631651392083,71.9023363549618,67.84840789601333
209.33873125,64.0585870166512,72.84143443046324,68.17375014279328
209.6719298611111,61.614293045721844,70.45963917884805,65.88052050596822
210.00512847222222,61.93740653731711,70.23487236660408,65.38830539513809
210.33832708333335,63.92839359424652,72.13644715949778,66.9499319984625
210.67152569444443,63.19253187419981,71.69659149042306,65.73116745305681
211.00472430555556,64.42001346154872,72.54351430733567,66.26840254491162
211.33792291666668,66.91257441246672,74.72197611932319,68.35064308459205
211.67112152777776,66.50757724042785,73.20222061098184,67.55917140742756
212.0043201388889,67.57513527685563,73.24527305930471,69.1709317746826
212.33751875000002,65.71345223294053,70.95864581424028,67.75069689198374
212.67071736111112,65.507934975074,71.25224741486815,68.11435790963854
213.00391597222222,67.74939324989965,73.19586898852519,70.21052437485247
213.33711458333335,66.98806568543847,72.14984336824321,68.79777632091003
213.67031319444445,68.73401665802464,73.23605039700742,69.54612251008875
214.00351180555555,67.92912119174693,71.18217609511504,67.70702395863938
214.33671041666668,69.0102046777865,71.58055174830513,67.9309410450454
214.66990902777778,67.6832555215468,68.62476067532941,65.58513538196613
215.00310763888888,67.43830470979786,68.41716395251606,64.99988202023793
215.33630625,69.34340691359871,70.05662599435725,66.52505246244728
215.6695048611111,68.13276178198959,68.3030510890317,65.4746421360433
216.0027034722222,68.47581892004831,68.23180277928925,66.13564810351863
216.33590208333334,70.63740114440722,69.87533767117722,68.41365463175413
216.66910069444447,69.7465124400576,68.47125864197295,67.4398119456522
217.00229930555554,70.30546414801341,69.52307609585728,68.44366561277765
217.33549791666667,67.40757112748678,67.8129186962233,65.55483674811708
217.6686965277778,66.57000020515844,67.84944737009641,64.69154795346422
218.00189513888887,67.84332291414505,70.01595394133915,65.43231259728724
218.33509375,66.509239590048,68.97435499115583,63.4335932377637
218.66829236111113,67.19911485635402,69.98484763344703,63.597976058557
219.0014909722222,69.43172782226861,72.85889015081541,65.39462703451488
219.33468958333333,68.61618249298316,72.47913668819812,64.40689332761441
219.66788819444446,69.95001843241616,74.0265842889131,65.86238902423361
220.00108680555556,68.05531076989907,71.90826413337706,64.57595783902816
220.33428541666666,68.11025614268205,71.01772814525707,65.04284114313042
220.6674840277778,70.78771281251304,72.85979978702072,67.4562297226682
221.0006826388889,70.55548092129143,71.76671657650007,66.90053600912412
221.33388125,72.25647066191816,72.48991661631,68.56252952209512
221.66707986111112,70.72760317103666,70.60398955972856,67.40795402323339
222.00027847222222,70.85354242902632,71.02458808901386,68.17430064332626
222.33347708333332,73.06009180405532,74.5203644546554,70.24152811269146
222.66667569444445,72.47139038241264,73.57588191885476,69.6880220145135
222.99987430555555,73.706259331355,74.54327303021081,71.24330244276348
223.33307291666665,72.68086887600741,71.84132083091585,70.21860642096726
223.66627152777778,73.66706463881665,71.13215201846876,71.39105555019194
223.9994701388889,71.4142665029861,67.81141795886501,69.41412959471704
224.33266874999998,71.00417742781806,67.17565085974896,69.2415742961222
224.6658673611111,72.14674185786856,68.49081158065788,71.18580277155684
224.99906597222224,70.52012460923211,67.05925569232383,70.22327234568587
225.3322645833333,69.35488180026829,67.25099735760256,70.93353861524035
225.66546319444444,69.97352817480703,69.2993362826903,72.87961692100934
225.99866180555557,67.88459195234203,67.85984018400872,70.8733488862513
226.33186041666667,67.88884199164407,68.3064391827142,71.25342668692903
226.66505902777777,69.69109856748754,70.15757143498216,73.66227148077074
226.9982576388889,68.20399307701476,69.96355121043882,72.95130018406256
227.33145625,68.809918058107,71.59370476503037,74.89331213926972
227.6646548611111,67.29309529624567,69.56057978609692,72.86798573158826
227.99785347222223,68.09182069146534,70.07487829105725,73.40831611773659
228.33105208333333,71.25212600724154,73.52844778598136,76.17955311205397
228.66425069444443,70.75022895189691,73.43728057116932,75.61495103544736
228.99744930555556,72.20948991294377,76.04136361487251,77.7710485524128
229.33064791666666,70.29676132998418,75.45988418216768,76.15529620518548
229.66384652777776,70.53528129473361,76.79864246375297,76.24420427393291
229.9970451388889,72.57775489898117,79.74020000720978,79.05839457916431
230.33024375000002,72.20630253777455,78.87368448797528,78.66581841807881
230.6634423611111,74.4966876791944,80.88915118824316,80.91120546849496
230.99664097222222,73.4971356743378,80.1297289266283,79.39204300801042
231.32983958333335,74.29738976680957,81.87787608630275,80.54305015620596
231.66303819444443,72.17255880921556,79.53191285968325,77.73643908012859
231.99623680555555,72.71316608815467,79.05553999134055,76.96151800028547
232.32943541666668,70.22477990346557,74.43839187744165,73.09427487528934
232.66263402777776,69.32275925027498,72.93585587277082,71.79998533677326
232.99583263888888,70.10070288739357,73.60042379559805,73.23527500035625
233.32903125,67.58973513329623,71.0905079413588,71.22805434836113
233.66222986111111,66.83960209982412,70.60858162455915,70.73838287441636
233.99542847222222,67.37665604628413,71.84893410468814,72.51228757693436
234.32862708333334,65.5902300916382,69.9344884618265,70.88780052360941
234.66182569444445,65.55104699374773,69.54992234954193,71.43742721242006
234.99502430555555,67.7384723953385,70.14342694203108,74.17340783122285
235.32822291666668,66.81018578657962,68.23006944789118,73.32099176407196
235.66142152777778,67.91129304027163,68.32317633772357,74.63324942677812
235.99462013888888,71.31469826697419,70.0727271807435,78.13234870985175
236.32781875,71.22349163223568,68.15117367097146,77.93449447348478
236.6610173611111,73.47101974579682,69.10376814582418,79.67194118779241
236.9942159722222,72.64765985665849,67.02183918946736,77.89983601917017
237.32741458333334,73.26906004468367,67.56252385314,79.14559999894297
237.66061319444447,75.79450289031125,70.26957527143325,82.15038136129665
237.99381180555554,74.85916839719013,70.0357509946427,82.08479596054374
238.32701041666667,76.48526993336468,71.82575509835614,84.93397103435248
238.6602090277778,75.3448495304064,70.68747001454985,84.75072121553661
238.99340763888887,75.93983897163118,71.8127613993295,86.9452358265847
239.32660625,79.24636302330289,76.10693060962019,92.17892394629487
239.65980486111113,80.55926949733943,76.92797388684764,93.39012596742857
239.99300347222223,85.04306451578712,81.16888197570945,97.58079217006664
240.32620208333333,87.4817061004992,83.06838762516972,98.41485417669982
240.65940069444446,92.6320082874674,88.66505428753104,104.24943191323196
