0.8956569872958258,71.2499253591294,71.23503279953825,71.19073950849904
1.2289709618874771,72.04749629285466,71.68583009960244,72.72737027387242
1.562284936479129,73.97915184646868,72.82193999369392,75.18328848901152
1.8955989110707805,72.98521411573688,71.38671512073772,74.86656561810035
2.228912885662432,73.76028137659281,71.77071032142865,75.09569558350225
2.5622268602540834,71.79664444386599,69.8939801957655,72.71104697244395
2.895540834845735,71.73306098511188,69.6504353240783,72.10031812715758
3.2288548094373866,73.4654509013273,70.99639078614936,73.69908362917587
3.562168784029038,72.80478352766092,70.74508791409158,73.30944028553536
3.8954827586206897,73.9444054923446,72.26550262954775,74.43422079307173
4.2287967332123415,72.32851092339891,71.41453437819055,73.1312898422264
4.562110707803992,72.60964117770128,71.53803287980276,73.92844787785815
4.895424682395644,70.21939926817362,69.7184426573669,73.05160379452103
5.2287386569872965,69.52878733953654,69.47161037798936,73.22760956329755
5.562052631578947,70.59486651402324,71.16099365373532,74.66158991510189
5.895366606170599,69.20598326314402,70.6385391504472,73.60609227841826
6.2286805807622505,69.59178542073136,71.33125568288943,73.8682938842968
6.561994555353902,67.51134473313067,69.44016997515264,71.98692523407945
6.895308529945554,66.86926939085835,69.22012211937542,71.41312662174228
7.228622504537205,67.79065461313562,70.80735708391947,71.69460419081724
7.561936479128857,66.52618135347953,69.51975813946288,69.87236147643256
7.895250453720508,66.91109874429128,69.5327667349055,69.3395147689191
8.22856442831216,68.22884943154017,70.9262657947125,70.286066559801
8.561878402903812,67.26774685895438,70.30026214683474,68.96883771446603
8.895192377495462,68.10235125611871,71.23135386969729,69.07223528766167
9.228506352087114,66.59826848875652,69.72935091219902,67.50287754996856
9.561820326678767,66.57926354105676,69.91417982301894,67.74523212028771
9.895134301270417,68.08846794448051,71.30800252333039,69.43819519182856
10.228448275862068,67.48299422634969,70.36135170589868,69.06222515311102
10.561762250453722,68.34684617214168,70.66416106358024,69.12704066240815
10.895076225045372,66.62206727294837,68.63139733482078,66.97245072813072
11.228390199637023,65.64279019679812,67.82093978777856,66.95350283433913
11.561704174228675,66.37064124949454,68.77942060443488,68.24942868201487
11.895018148820327,64.62716613241267,67.73323941062607,66.72682929226004
12.228332123411978,64.65791960967974,68.08893648967864,66.33501321066143
12.56164609800363,66.20261352136909,69.48847906267673,67.8455334618047
12.894960072595282,65.08273079615523,68.81150333805286,67.64464565712112
13.228274047186932,64.97976731222374,70.05480325513807,68.19638829380776
13.561588021778585,62.84709004171743,68.84489981875569,66.60105171740514
13.894901996370237,62.23470559042664,69.25363754072019,66.61430257686548
14.228215970961887,63.68705804689905,70.9072640004073,68.13953526618705
14.561529945553538,63.07864211889011,70.03527887642858,67.86334422528996
14.894843920145192,63.988760506940984,70.0824697902889,69.31251903952084
15.228157894736842,62.86608425342281,67.0903368456675,68.34063877572068
15.561471869328493,62.91094025449393,65.9932344141211,68.52550058229133
15.894785843920145,64.15405775907526,66.64972697674591,69.84658369932501
16.228099818511794,63.54643813994208,65.29769247912978,69.0517576022931
16.561413793103448,64.03427700314623,65.5187388413484,69.94732021443045
16.8947277676951,65.91294738212719,66.918239876485,72.3350408735396
17.22804174228675,65.047736657191,66.49678615236228,72.0520479885884
17.561355716878403,66.09001351018259,67.72367947840736,73.43100871350813
17.894669691470057,65.15842593632797,66.78451931550835,72.82602088327758
18.227983666061704,65.9130502509023,67.34067772311062,73.84784386518248
18.561297640653358,68.39706535137756,69.30553888517643,76.30858669626433
18.89461161524501,68.36814207046285,68.58028988456073,75.95926474750796
19.22792558983666,69.55839736605844,69.18430279215427,76.54456452451741
19.561239564428313,71.97565815520154,71.26827728469897,78.69426753514445
19.894553539019967,72.12691882445073,70.04614323036564,77.51012570203106
20.227867513611614,73.24145344109218,70.14299201103734,77.40261916249555
20.561181488203268,72.49158291378228,68.878336753267,74.8927893975981
20.894495462794918,73.04673931697567,68.88208633886809,74.31704265642188
21.22780943738657,74.66757462368119,69.8951973172108,75.20779336149498
21.561123411978222,73.03617228706408,68.41021074350279,74.23497324839283
21.894437386569873,73.0006836158098,68.51911733726091,74.7241678242559
22.227751361161523,70.78294973529962,66.38544281032749,73.2595511540622
22.561065335753177,70.14258015959915,65.70426781133526,72.77410646566885
22.894379310344828,71.35315444111286,67.0181786536207,73.28042892987206
23.22769328493648,70.42723188046838,67.25136131921339,71.39597402689057
23.561007259528132,71.12875468277292,69.44932328451105,70.9107653710087
23.89432123411978,69.46157684452767,69.49090686970945,68.81634749750242
24.227635208711433,69.44128832853967,70.47411273542085,68.13252211758416
24.560949183303087,71.09571004850199,72.49697211960152,69.47326279739265
24.894263157894734,70.34121467289913,71.54615974375061,68.82354182121551
25.227577132486388,71.24822554914397,71.90467106015349,69.8907814175515
25.560891107078042,69.82431139816211,70.08661675621546,68.74937217564636
25.89420508166969,69.75318232947279,69.72889430118035,69.1862312555415
26.227519056261343,70.58134812177146,70.85907444766136,70.85399222336507
26.560833030852997,69.37806289706361,70.18457786013514,69.57012332824733
26.894147005444644,69.84530402993433,71.84160280470826,69.69554891336008
27.227460980036298,68.1760768188309,70.63969382929668,68.11599728814693
27.560774954627952,67.9552021621297,71.12986272466507,67.9620487280763
27.8940889292196,69.39963819843429,73.42659882565815,69.67640512396771
28.227402903811253,68.97364114133802,73.40006291577943,69.30425038120633
28.560716878402904,70.06047043020595,74.58977712558624,70.79328662312965
28.894030852994554,68.5906831097083,73.62257668722631,70.0120846068423
29.227344827586208,68.71968415137638,74.55351106144772,70.78474324889437
29.56065880217786,70.12211378013123,76.57109285490708,73.60919600799775
29.89397277676951,69.78372052093323,76.23621088854374,74.42786788808222
30.227286751361163,71.32372235383822,77.0573965527376,76.62289177548135
30.560600725952813,70.87505021620797,75.84623281270984,76.49311273584092
30.893914700544464,71.98769558585727,76.88604306509042,77.76473081505
31.227228675136118,70.88642663448279,75.4015882132127,76.56377495715037
31.560542649727765,71.51094975761396,75.2909714942311,76.83410815905594
31.89385662431942,73.6559856592848,76.91456395514548,78.96842174154115
32.22717059891107,73.32872409565145,76.13817857188373,78.55273057296162
32.56048457350272,74.79188734740919,76.36476095513282,80.06518916863187
32.893798548094374,73.58712433406393,74.68376283094871,79.02576908380323
33.22711252268603,74.1025116549095,74.52153321493067,79.68597323495645
33.560426497277675,72.47653318843813,72.33766337798869,78.09326132324277
33.89374047186933,72.72091349252328,72.02472241657215,77.60438463068104
34.22705444646098,74.4371490727277,73.3968568418234,78.61676646294369
34.56036842105263,74.08153297285111,72.72804150627742,77.83203787442754
34.893682395644284,74.94748188709747,73.98642631064017,78.68608074963588
35.22699637023594,73.51559888458262,73.08052579066323,76.57399663953127
35.560310344827585,73.68286860375893,73.38298101241628,75.92324090211422
35.89362431941924,75.38423195671201,74.83955260951629,77.07796597611174
36.22693829401089,74.48303571964354,74.00670284479395,75.76833928068274
36.56025226860254,75.99107191174093,74.79976100983438,75.81077312455162
36.89356624319419,74.94476145201115,73.14712015813505,74.56218859156111
37.22688021778585,74.9339945030691,72.97872367145688,75.55163842815092
37.560194192377494,72.24905493213697,70.90486859026086,74.04440694243686
37.89350816696914,72.24804986290295,70.349404221773,73.98903481369157
38.2268221415608,73.2688760265435,71.80871572345181,74.91212082452401
38.56013611615245,72.4988807366059,70.87709009378221,73.39225390924531
38.893450090744096,73.43802632376423,71.23943965526624,73.08793262877874
39.22676406533576,75.56086643691496,72.75400735346767,74.12715691310076
39.560078039927404,75.00441152097233,72.35164118656174,73.81763860321047
39.89339201451905,76.59297446759493,73.35564261637496,75.6470901442249
40.22670598911071,76.16794547673328,72.53926663755678,75.08842782308695
40.56001996370236,76.72760927998783,73.47549083410297,75.9935009035484
40.893333938294006,74.44335379282973,71.48935608200955,74.17174793311945
41.22664791288567,73.8825928023579,70.94117601686234,73.64726392741066
41.559961887477314,74.74351395344293,72.0599979199342,73.83384292728832
41.89327586206896,72.72557536260426,70.84146951653227,71.91700496574008
42.22658983666062,72.56952177344786,70.81727895357898,71.73512155311757
42.55990381125227,70.44037445853971,68.6528905168962,68.92626461607578
42.893217785843916,69.59909457397417,67.9600582669045,68.17474648506456
43.22653176043558,70.47163550252871,69.33660654571263,68.48914310532159
43.559845735027224,69.25902818416237,68.10728886293724,66.68188493940252
43.89315970961887,69.52790364873339,68.71475659331195,66.6360722024784
44.22647368421053,67.66018089736855,66.64051673833681,64.17039657958234
44.55978765880218,66.93433453685684,65.69347957075856,62.9217965166374
44.893101633393826,67.79876250749649,65.95895344567373,63.15647104011417
45.22641560798548,69.5953434966909,67.74461288981344,64.94652517335183
45.559729582577134,68.99476794124705,66.96212812787186,64.6608145644051
45.89304355716878,70.06247087148687,67.73224648114176,65.83186286577512
46.226357531760435,72.74629673972372,70.35059787745118,68.50599147255767
46.55967150635209,73.0368263951216,70.41727505561354,69.22601291486177
46.892985480943736,73.85091716720594,71.80096272623636,70.83902700085058
47.22629945553539,72.17769221507417,70.75520124449565,69.83513420647549
47.559613430127044,72.2283641971595,70.88173040884111,70.16105954598541
47.89292740471869,69.8483975800459,69.16147760820027,68.57154428225437
48.226241379310345,69.43181393968766,68.73953119256574,69.03737305896885
48.559555353902,70.95063301307229,69.86116306487082,70.72043592042249
48.892869328493646,70.14428534669882,68.979668697304,70.01284567730568
49.2261833030853,70.6899146957859,69.65302106384749,70.928354527522
49.559497277676954,68.90041431178949,68.32612652721996,70.11988186760071
49.8928112522686,68.71750204038595,69.06117724657008,71.32162077505794
50.226125226860255,69.89482042446072,70.98330522918766,73.96600020761771
50.55943920145191,68.99955819999226,70.18214849085227,73.68840386306591
50.892753176043556,69.39755180223115,70.95473886907818,74.77743311795385
51.22606715063521,67.44028861136258,69.41484032813746,73.21850137236024
51.559381125226864,67.35998019959163,69.56143565862351,73.03041848873438
51.89269509981851,68.5580451010564,71.52757402089134,73.95831766670547
52.22600907441016,67.56888797168044,71.25585753389045,72.59163327156938
52.55932304900182,68.46732972332576,72.39126086101618,72.87405295632671
52.892637023593466,66.99242294963041,71.06178111789873,71.11983842536038
53.22595099818511,67.0195340590097,71.08020582782173,70.81916633871579
53.559264972776774,68.4348807753031,72.36841229652994,71.69497873085557
53.89257894736842,67.85905771022955,71.25461653196143,69.96417210778355
54.22589292196007,68.54406445913631,71.65745423474944,68.96197048163766
54.55920689655173,70.2763500636432,73.26118622140152,69.52942836260773
54.892520871143375,69.96049883511503,71.72155115622442,67.91714161912395
55.22583484573502,71.11625894354931,71.45519710462766,67.95266065544786
55.55914882032668,69.87573154655269,68.69877154965438,66.10951258565416
55.89246279491833,69.9118367023209,67.30739575463745,65.3509472127363
56.22577676950998,71.16114352508009,67.15918469948241,66.34810324997959
56.55909074410164,69.67939704489216,65.08692832699607,65.60539343477156
56.892404718693285,69.85486616650178,64.16689587710285,66.12592494242877
57.22571869328493,71.22305145617187,64.73795170245154,68.03775306245683
57.55903266787659,70.61627031178242,63.49332387548632,67.36528026158982
57.89234664246824,71.94621289318734,63.03584441734621,67.90161899060676
58.22566061705989,74.7349289767305,63.66231240805634,69.53658083383267
58.55897459165155,74.67377407221943,62.51346141175094,68.5241405087566
58.892288566243195,75.72586769100461,62.780895857649675,68.4792604335471
59.22560254083484,73.32972005368298,61.25345380804689,66.16586863793202
59.558916515426496,72.56410353992581,61.0978321326388,65.25475128163265
59.89223049001815,73.20616458630114,62.555889492083445,64.96812369945025
60.2255444646098,71.3650974639556,61.5926158982828,62.9350491872675
60.55885843920145,71.07715781652033,61.59819374432067,62.84708965538118
60.892172413793105,72.14743743806805,62.48322343081806,63.830263734623934
61.22548638838475,70.68331578991548,61.336030743703716,62.98309662496028
61.558800362976406,70.99054788386324,61.70859053086426,63.792441645413945
61.89211433756806,72.58485545206997,63.40135284021152,66.25391366234797
62.22542831215971,72.15152726658896,63.21349294750747,66.9610559502217
62.55874228675136,73.88416647966702,64.65325219975296,69.15569976900906
62.892056261343015,72.93856341169058,64.42440323101303,69.74112736713889
63.22537023593466,73.05658519637858,65.5898435607538,71.92738524227013
63.558684210526316,71.24735140614274,65.3788448781461,71.57540879473952
63.89199818511797,70.81875903322432,66.2474920111566,72.30026140840747
64.22531215970962,72.07087619737659,68.22938890170073,74.67447717051415
64.55862613430128,70.84788484874984,67.49412995811264,74.1471055762272
64.89194010889292,70.76201036435333,68.0783055042744,74.55811083530035
65.22525408348457,68.75272610754811,66.81354077171298,73.18934944266651
65.55856805807622,68.83821899159156,66.86278139929296,73.34331052047013
65.89188203266788,69.95208451096522,68.17575333824976,75.30192957149677
66.22519600725953,68.49013058625253,66.85199556065469,74.60441525326772
66.55850998185119,68.79790191172675,67.47243185286021,75.528867615512
66.89182395644283,70.91399057662072,69.61765555592606,77.71139747143107
67.22513793103448,70.06609384398122,68.97453385302263,77.33716994315901
67.55845190562613,70.40821115377955,69.43580112592903,78.48076779086058
67.89176588021779,68.61918701214042,67.46030157790292,77.05326879937738
68.22507985480944,68.4375519048507,67.33788894682957,76.03687746941478
68.5583938294011,69.59986839328954,68.7856314438697,77.12868292051971
68.89170780399274,68.80833034178373,68.35028620317212,75.77522251368221
69.22502177858439,69.58547659117961,69.04669578776256,76.27346516282344
69.55833575317604,68.68824989387659,67.03912188341847,74.44724118958221
69.8916497277677,68.72634467112259,66.2102983732243,73.995737923772
70.22496370235935,70.13905978599519,67.55945860470055,74.31362496047495
70.558277676951,69.49399409000377,66.83743847967789,72.23021739710863
70.89159165154265,70.14007695709347,67.27924751622206,71.9778760623134
71.2249056261343,72.17740402985433,69.41824748040482,73.3519922099863
71.55821960072595,71.97434644521068,68.62117735909128,73.06444361352641
71.8915335753176,73.02089234403407,69.19624708553818,74.35089845355367
72.22484754990926,71.50119142783295,67.18093366184168,73.41157566102972
72.5581615245009,71.43975887095317,66.63088834649764,73.57016431896946
72.89147549909256,72.76459446333425,68.12200984275219,74.68393034477825
73.22478947368421,72.28399869879046,67.18069340800739,73.57806064395896
73.55810344827586,73.8487842396767,67.32177104471197,74.40953323418746
73.8914174228675,72.39270273770867,65.5908480171498,72.87952069080103
74.22473139745917,71.9954413282929,65.12308213993506,72.59078220366577
74.55804537205081,73.07928510650738,66.5223924319116,74.00792053461232
74.89135934664247,71.52079960487382,66.11987397394142,73.03191640552313
75.22467332123412,71.91570110616087,67.10285763838519,73.36123684830649
75.55798729582577,70.31875151799862,66.33232086834063,71.59574193880215
75.89130127041742,70.11853102016306,67.42104683449514,71.57216181328681
76.22461524500908,71.28353478144933,70.01938143418724,72.80326727802107
76.55792921960072,70.03525988837563,70.42197291176826,71.62662164870409
76.89124319419238,70.72154719370414,71.60973212404882,71.50191183856069
77.22455716878403,69.34705407588389,70.6145785607807,68.72627529063237
77.55787114337568,68.53401647094124,71.30497835595912,66.93275367116527
77.89118511796732,68.60970109597491,73.06810255391345,67.21340823372137
78.22449909255899,66.59230102525744,71.7822814549497,65.89666909038814
78.55781306715063,66.04979182513932,71.5106980040774,65.52580661761469
78.8911270417423,66.92015475004023,73.01577341406178,65.97741053595686
79.22444101633394,66.31010066516804,71.81295849088718,64.4307524041282
79.55775499092559,67.04015769827942,71.69761778421008,64.56239044494475
79.89106896551723,69.21823827524025,72.92429758449668,66.16270759609887
80.2243829401089,68.5898819655332,71.9827995695245,65.64713589099021
80.55769691470054,69.2345485606552,72.34108253083554,66.41092904245866
80.8910108892922,67.58657702287053,69.9285280544806,64.91680317883348
81.22432486388385,67.19609795304187,69.48496382147198,64.79175466550548
81.5576388384755,68.70438737860995,70.59306371277059,65.47579192317461
81.89095281306714,67.83544125584697,69.1115312999661,64.10832729855845
82.2242667876588,68.48675000732574,68.81819738567187,64.15695860807489
82.55758076225045,70.90544953694773,69.99802906282875,65.6809336541542
82.89089473684211,70.44950538580076,69.08887866364282,64.98450758992296
83.22420871143376,71.43095649409858,69.82212637723859,65.55675336885193
83.55752268602541,69.70185985911539,68.24852746812502,64.68871861879333
83.89083666061705,69.5517124759112,67.91950238116159,65.11585325346869
84.22415063520872,70.44203322494953,69.26585360605027,66.82149363970514
84.55746460980036,68.57546248641496,68.3859101222439,66.40220362498636
84.89077858439202,68.6408309751865,68.4226715256315,67.18357218563806
85.22409255898367,66.26690022973314,66.32866387441716,65.79627438787136
85.55740653357532,65.88110311369873,65.74589860995262,65.65065480019335
85.89072050816696,66.55849952072667,66.79013135595386,66.47315141389959
86.22403448275861,65.39144113561922,65.86600554617863,64.87110538179445
86.55734845735027,66.28840752057391,66.3587648809578,64.55024385568501
86.89066243194192,64.78116015925815,64.73513538540922,62.07252228489826
87.22397640653358,64.9767717689045,64.25855240040407,60.76993804364279
87.55729038112523,66.503489324865,64.83786698463267,61.12795939780151
87.89060435571687,65.61019448064712,63.692213633338625,59.79489387066457
88.22391833030852,65.60507249272214,63.42523962157224,59.583315427617606
88.55723230490018,66.77086159785503,64.12045564082264,60.62449331741369
88.89054627949183,65.76934909303466,62.44621805240193,59.810671392491415
89.22386025408349,65.35730286760852,62.40849751047334,60.49350637386089
89.55717422867514,66.00415644438749,63.33446094805743,61.788010919733985
89.89048820326678,64.55280841507518,62.20695479824782,60.937831076209314
90.22380217785843,64.8555877087337,62.889150688270085,61.55873784164709
90.55711615245009,66.38153866260474,64.53083478937958,63.35295738650536
90.89043012704174,66.55270413557615,64.45016102346199,63.035388332653504
91.2237441016334,67.91590225895847,65.86592131635813,64.32237794000159
91.55705807622505,66.47825288268362,64.74082384857913,63.51703988337773
91.8903720508167,66.82006740263283,64.6741090692994,63.76813110943446
92.22368602540834,68.01322632089087,65.6538287349378,65.41966513270933
92.557,66.76691537646774,64.59945751891979,64.69222845071302
92.89031397459165,66.60403966459288,64.77212777959505,65.52352809297618
93.22362794918331,67.49750536981657,66.51338901482858,67.58369942848871
93.55694192377496,66.1711268979912,66.08418866856798,67.60336227278282
93.8902558983666,66.35170565429334,66.67406244034618,68.51853314483411
94.22356987295825,64.20394435119294,64.83560030170156,67.52769547224925
94.55688384754991,64.06611910377686,64.4033944827004,67.92636995247562
94.89019782214156,65.8575514605895,65.36864372885431,69.71755069938476
95.22351179673322,65.66711461288834,64.2303656458935,69.29276827688679
95.55682577132487,66.65644181201439,65.48717243747464,69.7420546307163
95.89013974591651,65.3789426284009,64.2463838752008,68.44145768756316
96.22345372050816,65.69701723178821,63.816456919881006,68.09341986864084
96.55676769509982,67.35596761519844,65.09322871349065,68.85235734992251
96.89008166969147,66.8862520311763,64.91445617841322,67.37782004631126
97.22339564428313,68.43382316203412,66.05793094731631,67.58605557287484
97.55670961887478,67.61299746886652,64.90748168946867,65.6595244391845
97.89002359346642,68.46668273943544,65.49085467354683,65.39919448087191
98.22333756805807,70.78415897767752,67.06802039794776,67.06032769107922
98.55665154264973,70.22477883594425,66.9026516761199,66.5039080330443
98.88996551724138,70.71751240311188,68.04791462838179,67.1324672966855
99.22327949183304,68.76407161230334,66.64994354934095,65.75837182032465
99.55659346642469,68.81600242496451,66.54140665284373,66.33639299321705
99.88990744101633,70.69916613787518,68.31848883076249,68.47838229778677
100.22322141560798,70.5107739567902,67.58280117851984,68.14849292748254
100.55653539019964,71.44018189123842,68.37272318150906,69.18607276802791
100.88984936479129,69.96694442966147,67.3587790728956,68.53474386607778
101.22316333938294,70.17956852579152,67.76719199016836,69.43532318142334
101.5564773139746,71.62511791406983,69.5471165291336,71.48385045209668
101.88979128856624,70.48351299877005,68.86333154478285,70.29130310882368
102.22310526315789,70.61432098617803,69.24826174937614,70.44412219785148
102.55641923774954,68.4997280602094,67.80683375441802,68.30749222864154
102.8897332123412,68.11658887812389,68.33032184364181,67.75654795970961
103.22304718693285,69.05608444765706,70.32532559820768,68.54667840408567
103.5563611615245,67.93016600049697,70.10275013092799,67.15624001195374
103.88967513611615,68.43311937556378,71.04707749642624,66.85061845688685
104.2229891107078,66.78192557570158,69.2623435402608,64.56216416225325
104.55630308529945,66.25940245664113,68.4386721826915,63.57732677862954
104.88961705989111,67.29317385231053,69.18717148649566,64.31269187184053
105.22293103448276,66.15464913364946,67.61366755099239,63.096540475080204
105.55624500907442,66.52192302275967,67.67273465870434,62.91226602190313
105.88955898366606,68.77591302106718,69.40622078763799,64.23908448657151
106.22287295825771,68.61542659433616,68.58571553772886,63.856681537086835
106.55618693284936,70.09973557006438,69.26383601143311,65.06539705064604
106.88950090744102,69.65603477444043,67.59579451870903,64.13902843403844
107.22281488203267,70.04879650492147,67.43822312719251,64.68233569746643
107.55612885662433,71.9012749421692,68.80242815095099,66.66718809689421
107.88944283121597,71.30898211032488,67.6151873191655,65.9924523864569
108.22275680580762,71.64466669627663,68.15026354380475,66.37131707354429
108.55607078039927,73.51948892595595,70.73609045218014,67.72018174244961
108.88938475499093,72.80101713893563,70.98381332215234,67.35369034133122
109.22269872958258,74.10642619211336,72.72539313884343,68.28549629839603
109.55601270417424,73.04446327639062,72.52017102267179,67.50505884466068
109.88932667876588,73.72002233983727,73.43710519377461,68.49218140404462
110.22264065335753,71.88265838060767,72.28969834966813,67.50323727109817
110.55595462794918,71.48281007204186,71.95945179192864,67.85787039716385
110.88926860254084,72.17791547651746,72.78087105478434,69.57412088661603
111.22258257713248,70.2214912515109,70.97512085713572,69.308932578261
111.55589655172415,69.82305168745087,70.57909327457203,70.64952011525264
111.8892105263158,67.68580838405217,67.97766983694044,69.359999420133
112.22252450090744,67.45865826260537,66.99050970104156,69.0915355057246
112.55583847549909,68.64337085728909,67.28764323352752,70.4524612267851
112.88915245009075,68.03232914558122,66.205470478011,69.79262295541001
113.2224664246824,68.69871553523797,66.42435270005305,70.29053823837563
113.55578039927406,66.853006134142,64.42244364243574,68.43578855255095
113.8890943738657,66.49697355647086,63.76216961980762,67.76081693051037
114.22240834845735,67.17247114318067,63.97939111412777,68.44813828916452
114.555722323049,65.41633715533197,61.7640059740103,66.56308527941609
114.88903629764066,65.5360735968926,60.773246718814725,66.32300833610601
115.2223502722323,67.30766530349253,61.26141805564038,66.84832488846132
115.55566424682395,66.5084321673521,60.03258602510003,65.540053300664
115.88897822141561,66.99412301439355,59.93992051696788,65.915767574903
116.22229219600726,68.95642293397354,61.24438003755256,67.53414306304907
116.5556061705989,68.47204658272642,60.34489679031914,67.08431205893643
116.88892014519055,69.50460008752597,60.59975396171099,67.7762523380613
117.22223411978221,71.17593324657588,62.700970788103994,69.82066769846685
117.55554809437386,70.33137066482192,62.619174463050925,69.73338684696375
117.88886206896552,70.72234759678972,64.28915142907479,70.82767121464119
118.22217604355717,72.29582270252133,67.19541208376904,73.50486312655089
118.55549001814882,71.71102625106,67.21392950255155,73.88264593110556
118.88880399274046,72.94960275116546,68.82346114033227,75.3827897433435
119.22211796733212,71.78584151772057,67.900829293946,74.78879269635216
119.55543194192377,72.52937837450106,68.85322161677178,75.78872995992492
119.88874591651543,74.72681861637683,71.3513990689839,77.68539106522188
120.22205989110708,73.80805172372267,71.18900205477824,77.22958956000228
120.55537386569873,74.7949126330817,72.08504024168205,78.2316861273294
120.88868784029037,76.86484943317878,74.31936272147351,80.10500470911343
121.22200181488203,77.44899732083014,74.33449438973895,79.32830994090749
121.55531578947368,79.05683722606331,76.04202499390588,80.66553922848648
121.88862976406534,77.56992916320053,74.98550120281185,79.07822394148016
122.22194373865699,77.77873545237108,76.45466571529063,78.78737766114587
122.55525771324864,75.61010790895828,75.84534400242116,76.34870890333269
122.88857168784028,75.3312573193791,76.74698818298086,75.90811601262682
123.22188566243194,76.53906616455502,79.44656830265167,77.31773864701522
123.55519963702359,75.60801658585325,80.1372194957546,76.3219596273486
123.88851361161525,76.22949222990016,82.19750746894334,77.53170730709041
124.2218275862069,75.03260245746468,81.48068924963637,76.66368663106635
124.55514156079855,75.73510523630478,82.4256402298145,77.5212607223924
124.8884555353902,74.2837804803051,80.50162539626324,76.74729795528037
125.22176950998185,75.05189912740063,79.92995411530299,77.25758163129025
125.5550834845735,74.18858332333913,77.03178193246596,75.56753026656699
125.88839745916516,74.95289299374839,75.70293534547869,75.438346661464
126.22171143375681,76.81244059010963,76.0683707413287,76.7700149502971
126.55502540834846,75.76532402485559,74.50900258820526,75.96339785165992
126.8883393829401,76.42067469646094,74.305510233569,76.83062005577034
127.22165335753176,73.93657260923632,72.30925224158591,75.65741927928505
127.55496733212341,73.05631071999241,72.21211798119317,75.99395165652041
127.88828130671507,74.1614534352347,74.17820264161173,77.60397012178473
128.22159528130672,72.72434632142209,73.53870481988106,76.49668062486303
128.55490925589837,73.33920211028261,74.8756941345868,77.05411506373136
128.88822323049,71.62525204265758,73.52510333657884,75.43981215051116
129.22153720508166,72.19920567130795,74.06698898366056,75.01833090443851
129.55485117967334,74.71100676146527,75.65825235285965,75.92719456760997
129.88816515426498,75.2221417105874,74.52555018892306,74.7587655921039
130.22147912885663,77.35297937126055,75.37173639587112,75.45890298368107
130.55479310344828,76.83581720933572,73.86051391614663,73.83119199634746
130.88810707803992,77.13675381739934,73.9212103956888,73.5080940573319
131.22142105263157,75.32459444225937,71.44696752229781,71.12784125850231
131.55473502722322,75.49920313637872,70.49356044645576,70.4366229299686
131.8880490018149,77.08280660766151,71.430883549807,71.75563429988632
132.22136297640654,76.27995240742788,70.50289834250663,71.6503817194513
132.55467695099819,77.46617873111632,71.4587319940117,73.60138022587982
132.88799092558983,76.24139866114335,70.33350031468318,73.42879528327973
133.22130490018148,76.59830891293468,70.53943992584632,74.49033066489531
133.55461887477315,74.1865666796543,68.3297097042018,73.44339676569942
133.8879328493648,73.91180743593893,68.02681957472765,73.20076596555128
134.22124682395645,75.43479138740281,68.94659663070702,74.95526264096247
134.5545607985481,74.5835359876599,67.08370983131798,74.41580402427789
134.88787477313974,74.72930548598785,66.72831115050042,75.31137065287277
135.2211887477314,75.77637231981973,68.39705064726249,77.28876844729143
135.55450272232304,74.04509346106717,67.85603459893078,76.65636516082188
135.8878166969147,73.42347249253567,68.30092335201614,76.93685704675913
136.22113067150636,70.41543180894081,66.36495447042518,75.03913448703634
136.554444646098,69.53636300607222,65.9728566084748,74.96964490210307
136.88775862068965,70.50170861919405,66.3401031935305,76.1224159583603
137.2210725952813,69.15279166653578,65.11281389491599,74.45606476067974
137.55438656987297,69.39302068214707,65.46657824633986,74.10438627116714
137.88770054446462,71.0952235761476,67.20850658174399,75.35858459611698
138.22101451905627,70.87618139707175,66.96627286097963,73.80332783592043
138.55432849364792,71.50989830456565,68.16601741863727,73.75427390310122
138.88764246823956,73.36824659983772,71.03002139255103,75.55120952045259
139.2209564428312,72.50807114481378,71.2576963457987,75.24122737322665
139.55427041742286,73.43683884039555,72.50018304304976,76.52006546176334
139.8875843920145,72.5332772562239,71.1222131018716,75.10486393127934
140.22089836660618,72.8666048831173,72.13400936727952,75.56600869697948
140.55421234119783,74.9074995096588,74.71369066986004,78.2792876418681
140.88752631578947,74.41637012343462,74.74186914566465,78.24325244813824
141.22084029038112,75.58910316455615,76.53490750924101,79.94177142834556
141.55415426497277,74.52396518945434,75.48646479731077,79.49162699272307
141.88746823956444,74.9393820685388,76.65982542340465,80.54822393989556
142.2207822141561,73.10955719150077,76.02077380913018,79.07358162878877
142.55409618874774,73.08981491795059,76.89591845107876,79.73476568410092
142.88741016333938,70.91336507368125,75.3227343254659,78.20366901999024
143.22072413793103,70.52552290778637,75.75647578411125,78.18710350171663
143.55403811252268,68.32594174438253,74.20549274466167,75.84600139732662
143.88735208711432,68.14876995467797,74.23059612778924,75.57280189529595
144.220666061706,69.75614402917985,75.80220845421559,77.37642106171326
144.55398003629765,69.04797197245912,74.97210923276174,76.9780867545937
144.8872940108893,69.99323959611222,75.07485918380472,77.69635910790944
145.22060798548094,69.08605123824417,73.19473884313912,76.10567446821493
145.55392196007259,69.6088976109555,72.74981558486218,75.43320783501363
145.88723593466426,71.74579650555688,74.46262471504227,76.44038968062802
146.2205499092559,71.7138300129592,74.080295490704,75.28044551468612
146.55386388384755,73.47581397135687,74.9930458010277,75.27061216336152
146.8871778584392,72.69767433271707,73.6751241835591,73.36459897734794
147.22049183303085,72.79713946521812,74.08299567452237,73.95380091761479
147.5538058076225,70.52355280243445,71.68290737568904,72.65749331575233
147.88711978221414,69.860554091407,71.08530129204539,72.67114068418266
148.22043375680582,70.85026071473752,72.40625201910927,74.36033466402016
148.55374773139746,69.9510369373549,71.61643390123291,73.77095857768468
148.8870617059891,70.10546042538249,71.92472902329507,74.20345643997798
149.22037568058076,71.91779345092978,73.66176789212201,76.27070284265324
149.5536896551724,71.64264848026438,72.6949200464291,75.72248461320588
149.88700362976408,72.78936874002365,73.46755831164559,76.70601186507845
150.22031760435573,71.1130702831756,72.09997874767635,74.85282253895059
150.55363157894737,71.10054832482957,71.87049875386371,74.70677509888506
150.88694555353902,72.4642000463919,73.06545573750208,76.33816884368757
151.22025952813067,71.65792190661608,72.75309359546989,75.49102196693607
151.55357350272232,72.37175261739257,74.06792122909881,76.59747947182008
151.88688747731396,71.13763665300405,72.72252982308137,75.24813390230688
152.22020145190564,71.45743005879926,72.41779567000232,75.12664325460995
152.55351542649728,73.78951288254231,73.32120402040078,76.9643283689561
152.88682940108893,73.35612305712796,71.8680528520544,76.75337812894905
153.22014337568058,74.07211296093867,72.04133708591651,77.68838905749037
153.55345735027223,72.62287457186449,70.42603519551406,75.9240582732846
153.88677132486387,73.26581345752649,70.83808532309435,75.69236232583596
154.22008529945555,71.88002172527023,69.5200351961786,73.56310411097695
154.5533992740472,72.28387446097054,69.93554094609011,73.41460834795738
154.88671324863884,74.23411778248607,72.13797848533815,74.94777820821707
155.2200272232305,74.15268992011998,72.58446033863375,73.98812259085115
155.55334119782214,75.68299727758992,74.86430198392186,74.60314929428536
155.88665517241378,75.3948069570928,75.06596060909624,73.69773462625085
156.21996914700543,77.14312338553141,76.52619971436323,74.69347270085055
156.5532831215971,75.92458863341452,75.49875580244021,73.47691221870673
156.88659709618875,76.12160327660072,76.14005324733591,73.45701810579023
157.2199110707804,74.13528283662608,74.32539678321552,71.73085471652921
157.55322504537205,73.71149644731307,74.22538417157324,71.65364071617006
157.8865390199637,75.30015407829717,75.8117541650423,73.35544676176629
158.21985299455537,73.97841030156795,74.79246543444357,72.46848472053924
158.55316696914701,74.38617272839095,75.28483222825179,73.24615256717958
158.88648094373866,72.91537172338397,73.8316654526582,71.7632636600736
159.2197949183303,73.27326217192682,73.34433155281738,72.39692529685254
159.55310889292195,71.12778241915835,70.96837101707754,71.08850203802874
159.8864228675136,69.99099449250119,70.30010976766049,71.1649378034222
160.21973684210525,69.88175733554121,70.97930639567589,72.4181503900733
160.55305081669692,67.71520337137343,69.47955464652911,71.43820210441909
160.88636479128857,67.42243591702321,69.14814096251983,71.0996141121085
161.21967876588022,69.02963574938208,69.6369387555448,72.28265659682101
161.55299274047186,68.44492814432866,68.13874025227602,71.46304139260862
161.8863067150635,69.58117616984399,68.63827752245253,71.60595399974137
162.2196206896552,68.13199534469426,67.16409804206613,69.17442356262717
162.55293466424683,68.42959660891053,66.79622184912701,68.6168946614134
162.88624863883848,69.69677264807808,67.88803914653336,69.92716719661682
163.21956261343013,68.13500098941662,66.7559565123305,68.9973740787944
163.55287658802177,68.28086039486115,67.37422478157232,69.65491208524944
163.88619056261342,70.19017912312026,69.21260780273862,71.48035606142687
164.21950453720507,70.1375042836069,69.22892189292799,70.91256473362706
164.55281851179674,71.60853610444015,70.41262700519124,71.98232542192515
164.8861324863884,70.43901128961856,69.52629041134647,70.49926118706205
165.21944646098004,70.84901419958791,70.77536013405266,70.33113491919791
165.55276043557168,72.98385147416816,73.36955171824424,71.67985484566886
165.88607441016333,72.95009699938053,73.15043320817915,71.07626625890825
166.219388384755,74.92159683443442,73.79877188421762,72.09493318536337
166.55270235934665,78.755950706693,75.79894702410563,74.65755293462017
166.8860163339383,79.44210246560355,75.99583865287586,75.25698217431064
167.21933030852995,82.26491017361438,77.8421311779055,77.08535849469287
167.5526442831216,83.00145653444662,77.52548700686876,76.38737341254705
167.88595825771324,84.63870148738155,79.25485729788882,76.90236711189726
168.2192722323049,83.18451886564661,78.79854306411038,74.78284911035868
168.55258620689654,83.03192392739318,80.29249494703436,74.84071628581475
168.8859001814882,79.56679187052374,78.97074914786434,72.93635940296838
169.21921415607986,77.74347163245588,79.07610699559442,73.13613670410031
169.5525281306715,77.77788652833566,80.96421707437902,75.08938755068215
169.88584210526315,75.45540535615582,80.305123812064,74.86997237196562
170.2191560798548,75.49743976086613,81.52848467425855,76.31474655839622
170.55247005444647,73.25240187688948,80.4187467350894,75.43464359246784
170.88578402903812,73.08344922363891,81.10441351990703,75.77833629418245
171.21909800362977,70.76702146628604,78.49822807712056,74.01605951897245
171.55241197822141,70.32824760323844,77.98919057411821,73.71035638762693
171.88572595281306,70.91473894682534,78.67373253037884,74.94168830308874
172.2190399274047,69.6717109501561,76.99760915929907,74.1599022862737
172.55235390199636,69.9842331170812,77.06050924979382,74.75233909253848
172.88566787658803,68.22222818860897,74.49784249499267,72.80129021866213
173.21898185117968,67.99103983390505,74.21706963775206,71.7942723092834
173.55229582577132,65.80741485743478,71.71812074094913,69.05878130383869
173.88560980036297,65.41967953367346,70.81468015329551,68.41016910736947
174.21892377495462,66.45977285126442,71.6564265512186,69.0291671540194
174.5522377495463,65.73917223731807,70.10675520306233,67.12848543016835
174.88555172413794,66.60056689495838,69.80555024386051,66.7516596461026
175.2188656987296,68.27586369012543,71.29090136229047,67.75189111718593
175.55217967332123,67.20000762909183,70.50662138834505,66.65490947798301
175.88549364791288,67.74172143250138,71.0781917219601,67.20540878624657
176.21880762250453,69.82659966243048,73.09148475063638,69.3179345030145
176.55212159709617,69.4641067236328,72.6383409625129,69.8367031920817
176.88543557168785,70.85241553647151,73.43234406491342,71.32844776805945
177.2187495462795,69.9117049599414,71.45263564456086,70.34801388034936
177.55206352087114,70.85636378216063,70.9705527814481,70.7028433796578
177.8853774954628,73.4576001452773,71.66208346741801,72.7578637733723
178.21869147005444,73.29476490315871,70.09919039698521,72.05649067090972
178.5520054446461,74.49637203624589,70.57219104618717,73.18320645458994
178.88531941923776,73.21833801556718,69.36583954766115,71.99509748645679
179.2186333938294,73.58170809206487,70.08485174387525,72.36714900207856
179.55194736842105,75.89169550472366,71.92852373631177,74.28136864047278
179.8852613430127,75.4563004202767,70.94027291620534,74.0292016409777
180.21857531760435,76.51079112174472,71.35043374398929,75.5102826765565
180.551889292196,75.5259811333327,69.7211498172856,75.01874225405925
180.88520326678767,76.09956157693729,69.45704732031605,76.47820331440083
181.21851724137932,78.47896014973287,71.34778835485182,79.33571319514084
181.55183121597096,78.37159486559116,70.70658334776712,78.89182412215857
181.8851451905626,79.44113706544267,71.61775399329517,80.1254847650253
182.21845916515426,77.82109504088207,70.49372504902578,79.19271854307824
182.55177313974593,78.51093689911666,70.78378091669649,79.88008880031755
182.88508711433758,76.51107294235554,68.8197796210799,78.0871272742583
183.21840108892923,76.65307016035587,68.81817470986033,77.8060332824849
183.55171506352087,78.56992533403559,70.2765102682563,79.73484705751335
183.88502903811252,78.61122875263739,69.33819218728627,79.2166322405358
184.21834301270417,79.61387358430538,70.63797449927132,80.43318674957501
184.55165698729581,78.73896652606346,70.19333441306294,79.26514473085446
184.88497096188746,79.65011174896907,70.6834249028953,79.3440119600474
185.21828493647914,77.80187368376811,68.72056704783529,76.56631167600193
185.55159891107078,77.99730902522599,68.60604223894687,75.48984373381182
185.88491288566243,79.74878721959581,70.25407086178367,76.17996867966002
186.21822686025408,78.85493989235029,69.50282097184359,74.89793173763094
186.55154083484572,79.20648212902947,69.88132944891747,75.02288391404156
186.8848548094374,76.88864443213775,67.9722684381056,73.57567924597105
187.21816878402905,76.46288098531421,67.75989437876204,74.02136319361095
187.5514827586207,77.47297882545263,68.99243473666267,76.02139336988036
187.88479673321234,75.91531354445043,68.51131874658162,74.57505254084602
188.218110707804,76.29277947299852,69.53069866298002,74.8850348558839
188.55142468239563,78.74207367369755,72.12259445204494,77.1320761396596
188.88473865698728,78.7037382135347,72.3735080165281,76.89207532554026
189.21805263157896,80.22769802363597,74.7293659080476,77.9879355546557
189.5513666061706,78.92203576581475,74.94892956917514,77.12002875335757
189.88468058076225,80.05536885802016,76.66475457900027,78.14165323382569
190.2179945553539,78.98817174163658,76.12597883257044,76.49357901298265
190.55130852994554,79.68426849824291,77.35082855857351,76.78627706470256
190.88462250453722,77.94679741583028,75.69889139446457,75.04714631190201
191.21793647912887,77.63723763601331,75.16138243539922,74.52799784982163
191.5512504537205,79.46125364530802,76.03281295918786,75.70386071644731
191.88456442831216,78.6580106407382,74.38092672023228,75.30993057900423
192.2178784029038,79.19577552702623,74.38143759283491,76.0843760140348
192.55119237749545,77.65814737490112,71.9579497963953,75.36696681612693
192.8845063520871,77.68258742159395,70.79408638750358,76.22969696584055
193.21782032667878,75.12647183089001,67.82563383726657,73.8716675108007
193.55113430127042,74.39987908678279,66.60045892420709,72.89914885665061
193.88444827586207,75.46186596000256,67.04927922323358,73.86366555907631
194.21776225045372,73.95014494879237,65.44914542478573,72.70757054256012
194.55107622504536,74.03420701570109,65.94715167701519,72.72681721462286
194.88439019963704,72.10901362023361,64.07892451065635,70.14848255964777
195.2177041742287,71.57792144257517,63.40308743620743,69.0257411610545
195.55101814882033,72.30118038402001,63.986951303130084,69.25132617316167
195.88433212341198,69.78896947830411,63.04678655265049,67.47044690707568
196.21764609800363,68.99201187584923,62.970679032314514,67.33556031044255
196.55096007259527,69.82809472146937,64.38239129640134,68.50621189585993
196.88427404718692,68.46379103006664,64.0954796301576,67.68801478409661
197.2175880217786,68.54385585310588,65.14820499812541,68.14722724793755
197.55090199637024,71.0838223254655,67.44194985753215,69.70542754170538
197.8842159709619,70.89816859592572,67.74032152918062,69.10951890057227
198.21752994555354,71.94737694789804,69.55471942830292,70.15567878879088
198.55084392014518,70.295682836996,68.70809686121403,68.9570262481275
198.88415789473683,70.19346497019741,69.29913725048776,68.99971414236008
199.2174718693285,71.32910180848329,71.2556583710485,70.07984964265538
199.55078584392015,69.97934885586405,70.91077476730395,68.79961454817607
199.8840998185118,70.18869648904167,71.5248392767196,68.68204812893264
200.21741379310345,72.33734572732217,74.16151312460003,69.91245856657544
200.5507277676951,72.02532112695795,74.00344173505826,68.86358349187617
200.88404174228674,73.50309330653411,75.18012835955804,69.40771979209761
201.2173557168784,72.54894980613581,74.02632475336314,67.98366168597175
201.55066969147006,72.80227881518054,74.27724330708298,68.00426192645132
201.8839836660617,74.81344734477211,76.44727599025647,69.17498795145039
202.21729764065336,74.24390629544108,76.28719249259306,68.23627064575454
202.550611615245,75.2990031669827,76.98942901599577,68.69060396453423
202.88392558983665,73.74910709619039,74.94978768745685,66.9548904070673
203.21723956442833,74.20857636286429,73.73357837128555,66.83665164976078
203.55055353901997,76.3358292514827,74.44272097565594,68.31847079702433
203.88386751361162,75.55998666953847,73.45278181367613,67.89190236502168
204.21718148820327,76.01027289371608,74.535329986341,68.73617202993185
204.5504954627949,74.03654351772624,72.64865225758504,66.72624885847414
204.88380943738656,73.47746797439478,72.1519050912816,66.01646003235426
205.2171234119782,74.47622486107213,72.75418963375222,66.57051591345183
205.55043738656988,73.41070140844708,70.75660364519766,65.16593233430206
205.88375136116153,74.0766091816709,70.56956704201558,65.02036947039225
206.21706533575318,76.05286144734242,72.11720706004265,66.05885303191698
206.55037931034482,75.20745824317831,71.4494207637325,65.23007500822216
206.88369328493647,75.34508927806212,72.48561358342813,65.43788171766542
207.21700725952815,73.06973413955589,71.34313389585061,63.68468962103054
207.5503212341198,71.98719195680955,71.77842301303636,63.61424225679019
207.88363520871144,73.17723559722093,73.07926808014908,64.85592844337346
208.2169491833031,72.48564653891097,71.91085139221433,64.3038909386144
208.55026315789473,73.2340975182737,71.9331457702859,65.36180867632902
208.88357713248638,76.2880905392105,73.94034112550476,68.07321967284139
209.21689110707803,76.98152895444264,74.01958537028871,68.44889943786941
209.5502050816697,78.85791469977218,75.52882804893574,69.82901419075047
209.88351905626135,77.75779172909556,73.95579448323987,69.24537690173483
210.216833030853,78.3406212376592,73.49712052768308,69.94727942476058
210.55014700544464,80.79861232063047,74.69656801928788,71.44328414186846
210.8834609800363,80.08274216011267,73.92881426442696,70.41686040456047
211.21677495462797,80.93601123009185,74.78901168399847,71.09208226210703
211.5500889292196,79.24302739088813,73.00703649945036,69.83491660141391
211.88340290381126,79.43935364456037,72.67273661402297,69.89876919740965
212.2167168784029,77.33327547791308,70.17747962464108,67.93494535599068
212.55003085299455,76.47039380600533,69.82339277109766,67.30106156431928
212.8833448275862,77.03794715473653,71.3189471666308,68.05025506398718
213.21665880217785,74.60204410679842,70.80568261290445,66.33120074029908
213.5499727767695,74.11468405882171,71.13459829994187,65.93786100905166
213.88328675136117,71.63550083091845,68.80566344115994,63.74388249441944
214.21660072595282,70.83965378167974,67.80886736201302,63.425239056566426
214.54991470054446,71.36058408776421,68.29820375484505,64.39577893329184
214.8832286751361,69.47068019453157,66.27000255287466,63.34091757678222
215.21654264972776,69.84522789295866,65.69350865966268,63.81002867829492
215.54985662431943,71.2451837827155,66.78705354133275,65.72374559758593
215.88317059891108,70.1234623409613,65.95137660281641,65.3996515280299
216.21648457350273,70.32058365836077,66.20573272646341,65.77869706256071
216.54979854809437,71.6834157873013,67.79825575758184,67.61900610539165
216.88311252268602,70.29056697266088,67.09520472488185,67.00661491239654
217.21642649727767,70.59597519446152,67.33491555619712,67.50144029676164
217.5497404718693,71.94681582562384,68.70063345618958,68.72819607906605
217.883054446461,70.32310807620587,67.7432626563946,67.4749740757805
218.21636842105264,70.20948112276363,67.91944298498674,67.42276840383721
218.54968239564428,71.39744627834635,69.38623368411996,68.93223162722899
218.88299637023593,70.86231420372478,68.62143617528001,68.2893701123472
219.21631034482758,72.00491142189432,69.25577256010226,68.85677514887011
219.54962431941925,74.18347971774921,71.02259226479265,71.19909487975956
219.8829382940109,73.84489294526306,70.19534688053639,70.78226649406587
220.21625226860255,74.983402352182,70.86746485924567,72.37560637861402
220.5495662431942,73.65818862130615,69.0136628331081,71.8464259393721
220.88288021778584,73.31849297999139,68.5136878188916,72.30566761115207
221.2161941923775,74.54488623512356,69.46414717045563,74.21355101170388
221.54950816696913,73.49822590993033,68.17252300594185,73.70981635017294
221.8828221415608,73.93620072924907,68.69376830171537,74.48153559255448
222.21613611615246,71.83294050297621,67.06439079036463,73.03773885402234
222.5494500907441,71.14153192862567,66.6073290411199,72.52068402846626
222.88276406533575,72.14935201310698,67.5050913402901,73.04325202681797
223.2160780399274,70.98983320261752,65.98468843978421,71.82494216597699
223.54939201451907,71.30833145849088,65.81150698772808,72.80763860396382
223.88270598911072,69.508223325869,63.961513338493894,72.06939581530581
224.21601996370237,69.83611763294024,63.65219935466476,73.13610680649118
224.549333938294,67.81310941857025,61.61408552932655,71.75372632040138
224.88264791288566,67.473954181876,61.247213399070525,71.29440577331239
225.2159618874773,68.7004068417337,61.97504059760162,71.75195900270808
225.54927586206895,67.41325134509367,60.90446060516528,69.43871062857492
225.88258983666063,67.36157901022924,60.69779215226218,68.93606333024515
226.21590381125228,68.58553455556407,62.3184983537613,69.56438855445384
226.54921778584392,67.35790167137826,61.8296872154327,67.69164551339126
226.88253176043557,67.104025394427,62.78468218116505,67.16723626161719
227.21584573502722,68.90490226357556,65.25981712798676,68.68959678714432
227.5491597096189,68.43582479195635,65.35553625669633,68.05169991420537
227.88247368421054,69.73676156546173,67.08905942534955,69.05610651866093
228.21578765880218,68.37696525841672,66.48538186087802,67.55402371786829
228.54910163339383,68.86841659288125,67.28585579235525,67.50421641757337
228.88241560798548,70.69832995930125,69.50715934971677,69.3587075993128
229.21572958257713,70.25912735117635,69.40272064957038,69.18565243925246
229.54904355716877,71.21656820543699,70.78099998944498,70.43913326263292
229.88235753176042,73.45956472895172,73.44385476699158,72.78905185704791
230.2156715063521,73.52690244237681,74.2340883399192,72.9226304450361
230.54898548094374,75.43441081867044,76.63063537728881,74.15512206890189
230.8822994555354,74.63404950949565,76.64878333755306,72.60063389975456
231.21561343012704,75.74102476346049,77.97681407770772,72.56842881915668
231.54892740471868,78.2169689008322,81.07830844588283,74.28349426210029
231.88224137931036,77.85167331825247,81.20425909918802,73.6853557443552
232.215555353902,78.93919698595188,83.09736056746142,74.25420423667039
232.54886932849365,77.49534372800747,82.23973943575092,72.12721176083039
232.8821833030853,77.16581496334753,82.82042713897138,71.68496592705392
233.21549727767695,74.45079175560572,80.13072089478999,69.06601177750001
233.5488112522686,73.72102676395156,79.18955330912854,67.65428404597156
233.88212522686024,74.72615292381677,80.04323065880035,67.5536050421288
234.21543920145191,73.40933417066128,78.09533123996879,65.78712626736089
234.54875317604356,74.13936415418807,77.91168973819705,65.34419935724581
234.8820671506352,72.634592853696,75.72190412792537,62.43811221263722
235.21538112522686,72.66691155569465,75.19251266848819,60.93767838777334
235.5486950998185,74.31357720666084,75.73042562932402,61.267689077811255
235.88200907441018,73.07723817549356,73.86845272834547,59.44978742247833
236.21532304900182,72.89593771272074,73.75432713588786,58.91595154293608
236.54863702359347,74.19772033072113,75.12807334024012,59.79062149488936
236.88195099818512,73.07721514994968,74.11684639709523,58.840349453833994
237.21526497277677,73.9217391367265,74.82335149074669,59.221608181551574
237.5485789473684,75.86958209166261,76.81817789951789,60.594428598572605
237.88189292196006,74.94712603603355,75.83558246701874,60.715335145009554
238.21520689655173,76.42522202596959,76.66687357060295,62.243111341380384
238.54852087114338,75.22722871840237,75.15403268986366,62.092827423878504
238.88183484573503,75.71684423062082,74.58854391294662,63.18260117207232
239.21514882032668,77.45080299592021,75.69383344394704,65.3756847487871
239.54846279491832,76.3135682854974,74.05458192863641,65.0228729541504
239.88177676951,76.81500273119185,73.83898482857421,66.7396782739036
240.21509074410164,74.8942698301511,71.6443063914711,66.54247721859709
240.5484047186933,75.15489134566417,71.27133087811033,67.64860097224647
240.88171869328494,77.41987315777148,72.97091995761863,70.17908561731116
241.21503266787659,77.15003484101861,73.20596716667269,70.83792811732721
241.54834664246823,78.40269101752082,75.09122184897042,72.76105029585364
241.88166061705988,76.78109826408837,74.4472292044684,72.24014269857564
242.21497459165155,77.25775323565772,74.8491912901163,73.43074994649173
242.5482885662432,76.01553925784175,73.39010437857554,72.46789885681548
242.88160254083485,76.22918476353529,74.2626062011169,72.21500545278114
243.2149165154265,73.12262554175992,72.93187914399024,70.03073259489088
243.54823049001814,72.37286296984881,72.79967285325601,69.5090728129006
243.8815444646098,70.31917581594396,70.36191375895334,67.411793287161
244.21485843920146,69.63021304332246,69.50424686141845,66.12986272939023
244.5481724137931,69.61944737072457,69.99897224616208,66.15084177173759
244.88148638838476,67.5165072832701,67.64169814298666,64.46390616939945
245.2148003629764,66.54067821449125,67.20400760711374,64.01682216893691
245.54811433756805,66.84089802337172,67.97801761104739,64.84578623733148
245.8814283121597,64.9991503306121,66.39206758135647,63.809088175792866
246.21474228675135,64.45407018663738,65.7777314633118,63.54901051005784
246.54805626134302,65.64189209128719,66.64592407915511,64.71777068634574
246.88137023593467,64.5481620548809,65.29451697535501,63.94120663310868
247.21468421052631,64.51484833842092,64.85013532991265,64.09820677249343
247.54799818511796,66.3666056335224,65.97439762007028,65.05803210376725
247.8813121597096,66.0760711475474,65.09989196576953,64.23846551700782
248.21462613430128,66.99124006676587,65.47239490436208,64.6989272392691
248.54794010889293,68.8295945097662,66.94597773568377,66.20473538133594
248.88125408348458,67.5931812888795,66.3339298514623,65.33324501660843
249.21456805807622,67.31234729235489,66.81248240426982,65.70606030547236
249.54788203266787,68.77996152624088,68.47512995645353,67.3265602869566
249.88119600725952,67.71806526883655,67.40692757449591,66.84544422672455
250.21450998185117,68.23429983754166,68.12382326565593,67.71973209405304
250.54782395644284,70.30160283515119,70.37054790792267,70.42312648188371
250.8811379310345,70.11299105437497,70.31421487364577,70.55059289097119
251.21445190562613,71.06327017190222,71.72876104670372,71.80156150131852
251.54776588021778,70.10529302829326,71.06052202327007,70.81869094919887
251.88107985480943,70.71136723457855,71.62034862947567,71.1859061045593
252.2143938294011,72.51434450042828,73.69445818433243,72.95322087264523
252.54770780399275,72.2141445178586,72.8727072803749,72.32931086223644
252.8810217785844,73.36474770577874,72.73017947533047,73.07394437945572
253.21433575317604,71.80236391292735,70.62812094325767,71.18765434300033
253.5476497277677,71.93577343919102,70.65594277892218,70.91238137891152
253.88096370235934,73.77247358889733,72.13460767514331,71.93724789408515
254.21427767695099,73.17643871679995,72.01756055375125,70.75289163077011
254.54759165154266,74.86988256004776,73.92261201427168,71.43780124166888
254.8809056261343,73.9229336311596,73.65692138538887,70.57130202725985
255.21421960072595,75.26194282796438,75.62435528507602,71.49569058110797
255.5475335753176,74.64917016612479,75.11946685881124,70.59479354116769
255.88084754990928,75.7441081049588,76.04149415691491,70.8897223314236
256.2141615245009,73.72834773404836,74.86123589000394,69.1206598611217
256.54747549909257,72.4779598598603,74.70081977464501,68.95365194593694
256.8807894736842,69.28121009165109,72.04250614465134,67.28921387951046
257.21410344827586,67.86625963774841,70.4984847188568,66.82627315961639
257.5474174228675,67.51746163616586,70.78547598767793,67.58262350007537
257.88073139745916,65.00119706806578,68.98596527420335,66.21242992824531
258.2140453720508,63.908131389724346,68.28354861451675,66.00473476997864
258.54735934664245,64.20572828295403,69.6392537074644,66.9545486233824
258.8806733212341,62.66856184709474,68.67345264973098,66.29994029748839
259.21398729582575,63.04198712590104,69.20857854402857,66.88465511884297
259.5473012704174,61.64991096392379,67.46711141492192,65.7285380113066
259.8806152450091,61.1748379863037,66.45861110815734,66.01654644869014
260.21392921960074,61.66891114440337,66.64988631846359,67.18076076140669
260.5472431941924,60.44113930936086,64.65411972802949,66.31319631910712
260.88055716878404,60.22695855088978,64.3657628730613,66.72910782692556
261.2138711433757,61.75812060790379,65.68828643835607,68.6642391120028
261.54718511796733,61.32187325164759,64.71862146728652,68.23773037035345
261.880499092559,62.07404146991201,65.64125206265825,69.15350663768258
262.2138130671506,64.31064295263167,67.93248785982264,71.31033156456544
262.54712704174227,64.58618877972218,68.08802288198993,71.0165858052535
262.8804410163339,66.69101338696188,69.57001709517411,71.71695663148611
263.21375499092557,66.81774365393935,68.65874711276246,69.43550045909213
263.54706896551727,68.04922166956509,68.9113890119941,69.39879643073327
263.8803829401089,70.1028281483907,70.57526144747095,70.46568593912257
264.21369691470056,69.98009723065358,70.17804170657405,69.57245034643103
264.5470108892922,71.76073139789568,71.11822795621127,70.55982003901292
264.88032486388386,70.96297897985875,69.90307178804659,70.06591682030782
265.2136388384755,71.81384752073274,70.72246262226044,71.22418895760097
265.54695281306715,70.30445610564217,69.92278776500892,70.1388639636084
265.8802667876588,70.31893293822503,70.47607248155332,70.55347484438876
266.21358076225044,68.20227251325555,68.84804710510532,68.63655603747006
266.5468947368421,67.51542292252412,68.18079228274168,68.13134029784909
266.88020871143374,67.41246030996547,68.90312211831815,69.51945145531317
267.2135226860254,64.96942976601325,67.1234756936017,68.5721425703147
267.54683666061703,64.27622023996464,66.98055783323342,68.85246046259071
267.88015063520874,64.65802296101744,68.04216994937043,69.86296491373894
268.2134646098004,62.731756539697486,66.75824691207455,68.62777997576886
268.54677858439203,61.9903208365679,66.95548444761228,68.70540423924969
268.8800925589837,62.459015523133914,69.4009672922289,70.8742212244356
269.2134065335753,61.13687884313222,69.58448072260461,71.3224025401743
269.54672050816697,61.5839348184202,70.43968620319136,72.20279221988164
269.8800344827586,63.457158380508545,72.2136940564402,74.12879453724128
270.21334845735026,63.482246391995744,71.30302121421775,73.63213781835836
270.5466624319419,64.71755066754645,71.59792984054747,74.03848683433061
270.87997640653356,63.47861918438305,69.96231754800576,71.94910776624845
271.2132903811252,63.792611529272946,70.32143895962805,71.8541710323911
271.5466043557169,65.63012847819388,72.0261811735103,72.83820081012688
271.87991833030856,65.46352139940545,71.1962256167884,71.48058138215693
272.2132323049002,67.20591254132958,71.0915259882042,71.98703244144056
272.54654627949185,66.18190346531834,68.65714757689716,70.20200210282384
272.8798602540835,66.55348092973146,67.44021337143778,69.97055808344578
273.21317422867514,67.78036135975867,67.85054257972952,71.22168986751154
273.5464882032668,66.21191011964017,67.27485002633014,70.45572773868406
273.87980217785844,65.94153786249505,68.71360599517826,71.36828322372088
274.2131161524501,67.20568966445795,71.21349762961138,73.79270101935232
274.54643012704173,65.95376701548174,71.48452497936563,73.78624783446854
274.8797441016334,66.08916071906327,72.61841176072812,75.0729577767173
275.213058076225,64.33286178854448,71.89407819820383,73.90157511949909
275.5463720508167,64.04765715368646,73.08795445829503,74.39362903499982
275.8796860254083,66.05046852706013,76.194989495408,76.91489647991733
276.213,66.00946808911638,76.86605681083448,76.67659532971312
276.54631397459167,67.41926386120987,79.34907197571323,77.65320038732709
276.8796279491833,66.73205568725731,79.24325357455223,76.39750550950276
277.21294192377496,67.01704977379654,79.92833255073785,76.95488202293764
277.5462558983666,65.45455524189501,78.30151756306978,74.72850148523891
277.87956987295826,66.23125098930412,78.51825537507082,74.36056509995359
278.2128838475499,65.53943774033698,75.9933221705716,72.2428656517394
278.54619782214155,66.11561205568195,74.28446179402495,71.59540443589778
278.8795117967332,68.46189256081232,74.94732930296851,72.72776840968993
279.21282577132484,68.14825990284642,73.25246988419157,72.19994818401976
279.5461397459165,69.45943105973896,73.43154315127235,73.14063544752426
279.8794537205082,68.46770294766718,71.14394062124937,71.48540013841858
280.21276769509984,68.33508554213994,70.71791553294693,72.13146827578217
280.5460816696915,69.4844305243544,71.67767566035324,74.2213671020109
280.87939564428314,68.51287513557037,69.84250566676353,73.21061149053352
281.2127096188748,69.23464293565372,69.24160082731643,73.49387058732523
281.54602359346643,68.22322847769507,67.13150926909415,71.27518793620999
281.8793375680581,68.91154345595747,66.4564238663739,70.85412955878878
282.2126515426497,70.29108785590483,67.00157651155732,71.68393615757535
282.54596551724137,68.95116559082223,65.55321315023853,70.58671170650582
282.879279491833,69.2933004123944,65.64022380547182,70.81303049676231
283.21259346642466,66.9700408556672,63.446828617873976,68.89104782564526
283.5459074410163,66.06051343459555,62.550256916982285,68.35294656113066
283.87922141560796,66.21698875502847,63.160470839448216,68.8206610115721
284.21253539019966,64.22221226227003,61.36343018642621,66.71762321089156
284.5458493647913,64.0815278576733,61.1565327843803,66.30255140533222
284.87916333938296,64.92304867706672,62.24373789522875,67.2976682060215
285.2124773139746,63.786992048406375,61.078343816688935,66.30886899015991
285.54579128856625,64.08149657725244,61.1875160803994,66.68586930413008
285.8791052631579,65.3962193708021,62.307567268775784,67.89443331454004
286.21241923774954,64.07941900768333,61.156531764896734,67.56378985864266
286.5457332123412,63.70369891677006,61.59780528080548,68.6933452851945
286.87904718693284,64.70985248826224,63.199940617824446,70.72004716234854
287.2123611615245,63.98763502523087,63.38939131358408,70.23602201286552
287.54567513611613,64.91336032126674,64.01060304802634,70.66715798329506
287.87898911070783,67.62382823053171,66.43344641421433,72.20362108659397
288.2123030852995,67.56672791484951,66.6947109214373,72.06580392445437
288.54561705989113,68.92195892970578,68.65525638923572,73.33297861437445
288.8789310344828,67.89366272450998,68.10615343771272,72.22907212607689
289.2122450090744,68.83932680485263,68.5243593849861,72.47808843829455
289.54555898366607,71.22296696843826,71.04813089764274,74.11382312391603
289.8788729582577,70.88407000813194,71.03956897800818,73.24829234325864
290.21218693284936,72.10175355311374,72.26291129115327,74.28667201716961
290.545500907441,71.13104474786837,71.4831634465576,73.43780639803408
290.87881488203266,71.4429615900022,72.08270603078171,73.77477640121741
291.2121288566243,73.27011667524444,74.30363502751078,75.71198926921828
291.54544283121595,72.03114373735053,74.37568542998106,75.6632805638761
291.8787568058076,72.38617342245006,75.83622751508545,77.35509118216139
292.21207078039924,70.54175776481765,74.8032094719869,76.90115304893651
292.54538475499095,71.10656163447563,75.25813539327316,78.18937064526483
292.8786987295826,69.36360451405,73.7212435794299,77.09815641365824
293.21201270417424,68.89378412366634,74.0545614349507,77.3320054530187
293.5453266787659,70.20597746816618,76.57768588162439,79.28558687885148
293.87864065335754,69.98880466052198,76.46970951863139,78.94634390513069
294.2119546279492,72.10391654567458,78.38873846663212,80.42739928517288
294.54526860254083,72.18245316358067,78.10535650932937,79.1769342960759
294.8785825771325,73.77809683942547,79.3803179729731,79.39670238477933
295.2118965517241,73.28119909839408,78.02076351136978,77.33551459085683
295.54521052631577,73.94594494020296,78.63709304710349,77.01349632450743
295.8785245009074,72.60309459731377,77.09490907509941,74.62434385531509
296.2118384754991,73.03531329588017,76.28601043964282,73.83767354176803
296.54515245009077,74.2932542687533,77.0195778068669,74.61757114586672
296.8784664246824,72.90249738863191,75.38026308647625,73.1327387355513
297.21178039927406,73.03512424616903,74.99729484310829,73.55594499765148
297.5450943738657,70.79658912683415,72.39832734026295,71.82066229949633
297.87840834845736,70.1089688391887,71.18666393641044,71.76898318788038
298.211722323049,71.31475106378116,71.62561182335436,73.00015021556217
298.54503629764065,70.07584454338961,69.72340536421012,72.03226789564806
298.8783502722323,70.83226613391358,69.1957296476553,71.68426050464207
299.21166424682394,73.13157361928826,70.4393019339894,72.20204578884122
299.5449782214156,71.82001954686979,69.34943567651894,70.20920628594584
299.87829219600724,72.3145372254399,69.55348658401954,69.96662472693596
300.2116061705989,70.71805747606062,67.34624858088078,67.86778855523409
300.5449201451906,71.31979083925593,67.13735164906399,67.18249437626002
300.87823411978223,73.1318814426675,68.26094091800329,68.2463411402463
301.2115480943739,72.19508149698542,67.39705473228322,67.70302795144792
301.54486206896553,72.74567688235382,67.89522464938076,68.73975390540166
301.8781760435572,70.77545675801844,66.04537903948437,67.28568931353024
302.2114900181488,70.24400243739396,65.40238996142965,67.26470078069694
302.54480399274047,70.95515551002023,66.25471865984423,68.82391789092729
302.8781179673321,69.54452279499685,65.07300892927766,68.44891246244335
303.21143194192376,69.65559604811445,65.33011237832828,69.24680452010143
303.5447459165154,70.92585485788508,66.77311178472094,71.32857843833563
303.87805989110706,69.38493840179707,66.19644985408505,71.2120898455369
304.2113738656987,69.51445652249423,66.63750338998977,72.52526667890521
304.5446878402904,67.78042985613057,64.94473757006688,70.95330585571953
304.87800181488205,67.51224168276065,64.57531761757251,70.58047195394934
305.2113157894737,69.10853205103618,65.94276246604373,71.39690269424406
305.54462976406535,68.33878855904403,65.05503216673237,69.75354466070465
305.877943738657,68.79568763584133,65.53501019532489,69.39743348426911
306.21125771324864,69.95522446372581,67.85678038901662,70.24808117117983
306.5445716878403,68.96513451533271,67.77482172289844,69.1700325545306
306.87788566243194,69.23859609247019,68.97500205989637,69.75900086276764
307.2111996370236,67.43726741772969,67.90305883857846,67.78831234474248
307.54451361161523,67.19285879013484,68.01506439678552,67.30167943245863
307.8778275862069,68.81532814950076,69.83573017788812,68.33808637273708
308.2111415607985,68.35730602281376,69.45368941075355,67.86813904688977
308.54445553539017,69.01969702287293,70.54323211820821,68.35519831137394
308.8777695099819,70.73251289339848,72.29748567798602,69.86158792281527
309.2110834845735,70.01714113319818,71.23308925696202,69.04038998223226
309.54439745916517,70.44249754182371,71.73859104127432,69.30972579956943
309.8777114337568,68.06333876745785,70.00731070431773,67.08725524254223
310.21102540834846,66.94807400458346,69.48392915717633,66.40708874031652
310.5443393829401,67.36375028402824,70.647073750571,66.81589110477485
310.87765335753176,65.49187448062492,69.61462400225496,65.8145006888153
311.2109673321234,65.22504504849313,70.2364925065159,66.2102684215428
311.54428130671505,63.31488305104416,68.87169024289885,64.52017528926325
311.8775952813067,63.10748515344749,68.73216104303657,64.16815458984576
312.21090925589834,64.48984591131477,69.16257112180053,64.70140013882576
312.54422323049005,63.402874258001766,67.49722190822997,63.47133620057551
312.8775372050817,63.43195908416903,67.75489384412064,63.97349702809581
313.21085117967334,64.68546442215441,68.88368260147692,66.20133985157182
313.544165154265,63.68815458709324,67.5520952353438,66.18895109725271
313.87747912885663,64.63022829058615,67.84536770563223,67.34679676302522
314.2107931034483,63.525744161061446,65.61921661025112,66.47542236625264
314.54410707803993,63.12284929851837,64.7547230286463,67.2643778361627
314.8774210526316,64.35295069890918,65.52488609116313,69.65347236046037
315.2107350272232,63.52408726379161,64.65342682052439,69.90496508290667
315.54404900181487,64.6316559008029,65.1715745746206,71.31504906405273
315.8773629764065,63.85159282187112,63.88087907938074,70.71646419449165
316.21067695099816,64.82420170403003,64.5350081567702,71.06349351091903
316.5439909255898,67.29689298597992,66.46590265490084,72.7598656865874
316.8773049001815,66.90056256083466,66.24274291236688,72.15356953824235
317.21061887477316,68.1251513449048,66.88909177361792,72.75520029459919
317.5439328493648,66.52681428325283,65.18283530268258,70.9274219238181
317.87724682395645,66.11462658750044,64.2114809320848,70.22057267337627
318.2105607985481,67.02777622425361,65.0131498061534,70.58235953541825
318.54387477313975,65.67415165706778,63.936203843266846,68.00808349411193
318.8771887477314,65.5693854029238,63.58413083514578,66.73915854397669
319.21050272232304,67.2557354512809,63.959155099433694,66.56100683836836
319.5438166969147,66.32239391938514,62.07262219675834,64.25477259525124
319.87713067150634,66.70118987546448,61.6047692962252,63.25525597856413
320.210444646098,68.62281754639633,62.72333684922385,63.739404299124004
320.54375862068963,68.30049631311088,61.90433848448046,62.224715639575955
320.87707259528133,68.92832609529921,62.067976727594505,62.43549064731013
321.210386569873,70.94560101783688,64.01954267983406,64.3603649628841
321.5437005444646,70.65171988907046,64.34024958570332,64.65434766742587
321.8770145190563,72.27282068416386,66.27095745437072,66.24528815794204
322.2103284936479,72.04374428810576,66.02054200608518,65.62272482363856
322.54364246823957,73.36226378673179,67.21915393295767,66.3243307888191
322.8769564428312,76.23604510884735,70.18996936927668,67.94466639625661
323.21027041742286,75.77406011858335,70.99149301066235,67.48288027418502
323.5435843920145,76.8082863417822,72.60091733424562,68.564674960426
323.87689836660616,75.65537921019968,71.24183269252015,67.7478197586439
324.2102123411978,75.99619361634696,71.83015667739822,68.1701323983526
324.54352631578945,73.4510476657516,70.7665526746781,66.58557291885701
324.8768402903811,72.99105253912337,70.9947695419087,66.29546189845087
325.2101542649728,74.5239450323052,72.59075811373054,67.45694215544933
325.54346823956445,72.92581757940266,71.87204742788408,66.21355371396068
325.8767822141561,73.56718187816628,72.7171138887959,66.28839026282805
326.21009618874774,75.79485797330567,75.35719249529934,67.68901374081953
326.5434101633394,75.73628773206579,75.41263487734174,67.20181136916467
326.87672413793103,76.90815883142038,77.35890834129627,68.30378168528547
327.2100381125227,75.19221704887035,76.41546683994089,67.57807907573982
327.54335208711433,75.79041571786632,77.47772695971052,68.57256065399686
327.876666061706,73.98468602514515,76.08642507824386,67.45831447114077
328.2099800362976,73.82885784370403,76.6180804790932,67.8716939015751
328.54329401088927,75.233597069032,78.59951457145995,69.2446219212778
328.876607985481,74.14804728996586,78.09337211395233,68.33266708282214
329.2099219600726,74.50714726921014,79.40764513372655,69.01109252045332
329.54323593466427,72.05782169689452,77.61838111074782,67.56279044145906
329.8765499092559,71.51776030379193,77.58664609900367,68.22850090240532
330.20986388384756,72.59126326317303,78.73758749262137,70.36440620640329
330.5431778584392,71.38500524109033,76.66870024354317,70.21532675578528
330.87649183303085,71.73907874211892,76.76891067977823,71.54576115216771
331.2098058076225,70.10555055118358,74.78345150111278,70.52183290124083
331.54311978221415,69.71728112675912,74.32540532870358,70.48768773522451
331.8764337568058,71.00550568948016,76.23430223922375,72.62716836599105
332.20974773139744,69.97028859299463,75.63571735990259,72.55079303702752
332.5430617059891,70.79803971485795,77.06518327829316,73.90279335452557
332.87637568058074,69.22506402136398,75.81723141642883,72.7366911215096
333.20968965517244,68.89286565620309,76.09914054404726,73.40557837404353
333.5430036297641,70.10057229462804,77.7340969860604,75.75548709340185
333.87631760435573,68.71161690978735,77.25806040964746,75.64585438765853
334.2096315789474,68.99902537450376,78.48342376772986,76.65450204956986
334.542945553539,66.91146881063706,77.09646420349473,75.65379484924122
334.8762595281307,66.30769889744373,77.04464071915557,75.90223966333397
335.2095735027223,67.1142980166749,78.54902448004151,77.93479802766716
335.54288747731397,65.89953507579865,76.77957210257821,77.79693128194307
335.8762014519056,65.97987772032398,77.0486843580225,78.95829217170652
336.20951542649726,64.04239283799775,75.51942956545287,77.53446661268015
336.5428294010889,63.43349033274376,75.07220205364189,77.60790969756
336.87614337568056,64.37819929167009,76.0201612823283,78.84791966432785
337.20945735027226,63.29307489812838,74.73846731412462,77.48595637850133
337.5427713248639,63.95326156122757,75.19045652145647,77.3142816209288
337.87608529945555,62.87881568172402,72.91914972133972,75.12463219908
338.2093992740472,63.14542384210212,72.4338257779624,74.06172953649414
338.54271324863885,64.42549788782057,73.60852665628478,74.3343360734792
338.8760272232305,63.94838546355054,72.0787609102333,72.85822818760164
339.20934119782214,64.9237280657781,72.6586687637815,73.39292463375699
339.5426551724138,63.782060752919435,70.74891858710637,72.14874713069666
339.87596914700543,63.959440768207344,70.0493337032543,72.12324554830217
340.2092831215971,65.30479546091068,71.15904620203314,73.56600971974358
340.54259709618873,64.36234721388851,69.70452113734383,72.49893615571663
340.8759110707804,64.82109482492984,69.86317427407919,72.74236021829924
341.209225045372,66.49232351887294,72.07479502802126,74.59771182565733
341.5425390199637,66.28126205950666,71.92444056884557,74.02077514667553
341.8758529945554,68.23299696366776,72.80715501803897,75.07915250535765
342.209166969147,68.09171315192924,71.37134979921132,73.75356583427356
342.54248094373867,69.4928475267379,71.18478739059493,73.56469363794925
342.8757949183303,72.1822468587959,72.71794505542596,74.86900501712555
343.20910889292196,71.84221277140595,71.89854533394409,74.21368791973168
343.5424228675136,73.36455910768909,72.32175180825313,74.92987281052244
343.87573684210525,72.6579197667874,69.94731291964864,73.08212441017835
344.2090508166969,73.35689827096817,69.01362276504797,72.47277416813004
344.54236479128855,75.5718889384765,69.78129977528357,73.67849817232661
344.8756787658802,75.31005023926546,68.73901483282242,72.87712645160077
345.2089927404719,76.57794372465327,69.39184475221874,73.43178468828083
345.54230671506355,75.05864289996664,67.96155796427325,72.30476620115469
345.8756206896552,75.18971800865857,68.4523353774779,72.85985471818503
346.20893466424684,72.78668861445546,67.12287252517416,71.48674132850186
346.5422486388385,71.35485836592122,67.18996855803869,71.42829183211414
346.87556261343013,71.97866981411177,68.56788730178688,72.94231344166877
347.2088765880218,70.62209206823728,67.36909911916946,72.10533377898678
347.5421905626134,71.35064900699835,67.56594199592132,72.49574670226602
347.8755045372051,73.07540359184718,69.26362153363667,74.01492711575783
348.2088185117967,72.43161330524856,68.42798640098508,73.39546623710729
348.54213248638837,72.43603399897233,69.05330262717203,74.21337943732446
348.87544646098,69.84821540849791,67.26210765610465,72.81733814891213
349.20876043557166,69.07816699386849,66.35159783466045,72.69573980358606
349.5420744101633,69.59663882631551,66.87032846286672,74.20384887293321
349.875388384755,68.3232041690956,65.64770658871119,73.90050741292659
350.20870235934666,68.70895657577618,65.76138744112127,74.69715934901092
350.5420163339383,66.8610318914463,63.58134791345418,72.5389723538258
350.87533030852995,66.64947226363604,62.752399922938956,71.68723920198526
351.2086442831216,67.23872864185479,63.702546807428185,72.65881057189071
351.54195825771325,65.51411183156665,62.751207909918676,71.20875066888911
351.8752722323049,65.33598456449965,63.51496543563695,71.27505191588853
352.20858620689654,66.75598116633982,65.26191421822328,72.84623536202605
352.5419001814882,66.29250082742685,64.91162117651615,72.44038735308632
352.87521415607983,67.5897706578831,65.49447664718411,73.58071828773065
353.2085281306715,67.05680907117515,64.25230840001163,72.62353916293723
353.5418421052632,67.99209377314295,64.19051641776292,73.14556949670576
353.87515607985483,70.50263054731893,64.90794690034942,75.19334747208161
354.2084700544465,70.63026858691987,63.98163904662874,74.62525595321627
354.5417840290381,72.1979802060765,65.41895151485387,75.51444077186123
354.8750980036298,71.30425129288484,64.63144464748295,74.16548577712207
355.2084119782214,71.67552557601485,65.58110130667224,73.90788784771254
355.54172595281307,73.12143993309151,67.72285368672198,75.50333495946778
355.8750399274047,72.21170356452176,68.04098806578207,74.97689782018247
356.20835390199636,73.30655875750433,69.50456877294715,75.60590946415665
356.541667876588,72.3557929525106,68.05944208124941,73.93374586888977
356.87498185117965,73.1607936610764,68.8345676808025,73.66394576660859
357.2082958257713,74.68284976456697,71.00478087066311,75.9295036902276
357.54160980036295,73.97434001850353,71.07503685521303,75.77517328368779
357.87492377495465,74.9255464213414,73.32716479894209,76.76758507093565
358.2082377495463,73.76684378034997,72.94303430699698,75.7406225677246
358.54155172413795,73.83184241718324,73.55836031346928,76.56815553872505
358.8748656987296,75.7203773775163,75.81626018361357,78.60322563768351
359.20817967332124,74.49345608259908,75.44648783881486,78.2661298089623
359.5414936479129,75.29643929326924,76.67739421089907,79.05293527951267
359.87480762250453,73.8565262820671,75.80238071899974,77.47106678497849
360.2081215970962,74.65988188406835,77.3653126332075,77.37174220091242
360.5414355716878,73.23671415686384,76.64048310426513,75.27089893323985
360.8747495462795,73.67940477687988,76.92935041401529,74.8908459866766
361.2080635208711,75.83445128799787,78.65791806226727,76.25938559413655
361.5413774954628,75.23906849632161,78.04939824582357,75.45829479596057
361.8746914700545,76.29824983032988,79.19261728696274,76.24928751778222
362.2080054446461,75.7441086420863,77.72224318545324,75.36661924002753
362.54131941923777,77.11830992831388,77.56760497503556,76.50396832427963
362.8746333938294,75.57045510774475,75.08585642512828,75.7863525199355
363.20794736842106,74.98048521629148,74.60878757840719,76.51636397989964
363.5412613430127,76.46444451460745,76.24724650532877,78.87328653492233
363.87457531760435,75.57938028627572,75.66732550808798,79.61672007734802
364.207889292196,76.63743517859221,77.48054837328877,82.29210706337396
364.54120326678765,75.7679207938935,76.94247373463293,81.71147613908667
364.8745172413793,77.09726084954329,78.10700768037609,82.70303537939431
365.20783121597094,76.19229694340967,77.19124498197192,81.7804483242685
365.5411451905626,77.87342236849595,78.19281334549024,82.62649015129584
365.87445916515424,81.44798835171748,81.11223933095042,85.37627032937496
366.20777313974594,82.70178383104903,81.41767001199798,86.85033152338436
366.5410871143376,85.51742761271858,83.96091229016956,90.96605875536537
366.87440108892923,85.79794240058266,84.4035641638875,92.24262183480926
367.2077150635209,89.05504352272139,87.40042533425388,95.6317494232826
367.5410290381125,90.41014551686621,88.55585916994349,96.27587935951169
367.8743430127042,94.9451109225938,92.77698018268057,100.32572142022123
