Time,0,1,2
3.0,71.98723203157006,72.45077911091555,75.06282465984656
4.0,73.16310532286059,74.78417276352694,76.70517784809331
5.0,73.00425160009523,75.88027494562519,76.84388924481871
6.0,71.73533309380443,76.19146635257829,76.97368769223317
7.0,70.22154269699503,76.12278519182459,77.56246116018767
8.0,68.99416097931937,75.41970449478771,77.64012444968185
9.0,67.85194600506944,73.62568696631426,76.59813021967011
10.0,66.74526481348535,70.9682915928268,75.43985831654197
11.0,65.72128547469667,68.0009220667638,74.54283702576484
12.0,65.1089769307323,65.74762833692168,73.6331611547293
13.0,65.0554857789522,65.06375161955131,72.35211806354852
14.0,65.01017906808377,65.78239475273291,70.76111326591497
15.0,64.01268191240959,66.51078078275145,68.83991186793664
16.0,62.17627529964991,66.20376065964608,66.79838945063769
17.0,60.85910305307017,65.65459461293545,65.62477856947554
18.0,60.39245090225542,65.70144768419719,65.27139912836947
19.0,60.70713631580699,66.23895831621374,65.33013964399846
20.0,61.846957390453994,66.66872915964166,65.89229218133703
21.0,62.76952050635664,66.52529676692994,66.32166227299403
22.0,63.12656573061539,65.76250079359424,66.36360326830957
23.0,63.94553178956021,64.64776100211232,66.72422551085309
24.0,65.10935265830089,64.03205128274583,67.43606697621938
25.0,65.25097958563322,63.68518988292338,67.46789494538157
26.0,64.13817006312351,62.948084660729464,66.60364932940675
27.0,62.81839813492747,62.5276956522485,65.88087856462504
28.0,62.316955591320315,63.18553698465591,65.71536892241193
29.0,62.37763095228002,64.52838762398812,66.05567087184184
30.0,62.005443100753155,65.68078177459753,66.46390568059432
31.0,61.25854158128808,66.42342836331679,66.23020733236933
32.0,61.155101302355064,67.14591130315061,65.49811862014218
33.0,62.16364060331243,68.32155332953931,64.38200120436655
34.0,63.900640544920144,69.73639229557558,63.545096974548855
35.0,65.34851737544973,70.57177400588743,63.179643305203456
36.0,66.94070827164707,70.94552472432542,63.303780814240824
37.0,69.14924987714265,71.4365991402193,64.20375539701922
38.0,71.28293660203403,71.67152913153731,65.48334531393763
39.0,73.16253136986155,71.17546294893982,66.9388276599137
40.0,74.56368399563928,70.58125233508623,68.07889201181335
41.0,75.34346345412287,70.32461218472416,68.31024612462443
42.0,75.35044633346921,69.80733856737153,68.58103908042413
43.0,74.35049689212714,69.0514514715907,69.61822959580641
44.0,73.31150438996008,68.20570656961362,70.44511635406879
45.0,73.08489999394608,66.80170460371704,69.93464119841879
46.0,73.13343499311168,64.47965740077669,68.30356525727339
47.0,72.9882981068857,62.42181068413904,66.90326662612377
48.0,72.4032348418946,61.90172154727716,66.25865750668981
49.0,70.99113852775263,62.2135774164262,65.1505125048253
50.0,69.5035684691824,62.62076321581983,63.83938689790385
51.0,68.57896700101017,63.077734093401304,63.65365307635632
52.0,68.03450279602411,63.47484861101461,64.49066586995251
53.0,67.6474647909682,63.68188211665436,65.35824674571106
54.0,67.32953597253861,63.952091658903505,65.5656857503025
55.0,67.21694714032986,65.05138857099249,65.32566088428125
56.0,67.07708228157514,66.88690424022512,64.89921299925666
57.0,66.39382054114955,68.23392250861235,63.609726615435385
58.0,65.67581606504177,69.4671315089514,61.65696446713838
59.0,65.63306380617581,70.71978877862156,59.97801917266235
60.0,65.86937369420241,70.97016296852719,58.937010103319025
61.0,66.30206688338866,70.64841824068036,58.73110744033158
62.0,66.63721972114958,70.06923632814781,59.37737202327735
63.0,66.08628261547558,68.61847319964374,60.49212401197008
64.0,65.72436664038922,66.54431452932317,62.084746566554266
65.0,66.4044041040901,64.42561281754372,64.07820433748829
66.0,66.89126275143836,62.52426243185543,65.83519417163328
67.0,66.62729427740364,61.650192829839995,66.99091678134509
68.0,66.18124103712763,61.70493551949859,68.47839391118876
69.0,66.13324095059696,62.09143925042115,70.32360051271895
70.0,66.4928496260137,62.43014343473702,70.60044863801883
71.0,66.74519022271285,62.56425708972813,69.10641210432915
72.0,66.92737046235688,62.932665785528044,67.54528094985072
73.0,67.21961325741319,63.622038792672136,66.73567658065147
74.0,67.30309725841428,63.56561393313399,66.55001976223629
75.0,67.15501424070845,62.09746730761891,66.55955417760313
76.0,66.80987817241369,60.64087723535748,67.17164155968148
77.0,66.34447149706953,59.889785528886996,68.82986767798391
78.0,65.55895159499937,59.248834126121274,70.61343589548595
79.0,64.56495671329904,58.741038986714955,71.74021151594329
80.0,63.64909446177774,58.835809688471805,72.50476641492186
81.0,62.67894000934831,59.32998503654689,72.6594182009588
82.0,61.43965978188855,59.400038821002,71.56690397800406
83.0,60.87865070656782,59.34407924644329,69.87908798414516
84.0,61.64031375359389,59.451241418679835,68.1120256950224
85.0,62.948008229078624,59.81555615700827,66.296399774852
86.0,64.0019925236385,60.41696574613254,64.77547196363697
87.0,63.82191318680495,60.78969456656616,63.08623037069123
88.0,62.329037072340306,61.276444662148464,61.31691045082
89.0,60.77039704868905,61.85810598880646,60.00068771608146
90.0,60.27478682997407,62.46616122387806,59.193470986074125
91.0,60.7987182989596,63.033420645133404,59.049656507783794
92.0,61.49360880796256,63.30473713129807,59.8102230607212
93.0,62.152291206428565,63.66932056368924,61.40214014532103
94.0,62.79674483144058,64.24125262094083,63.065540380846514
95.0,63.636695330215105,65.00358149478534,63.85054756689667
96.0,64.53508904731376,65.81345536117182,63.91333419336592
97.0,64.3443198701742,65.99019799053933,63.92736351041846
98.0,63.23097429641277,65.7235881793094,64.04778373558405
99.0,62.30097797216924,66.29248060828472,64.24097954822011
100.0,61.6471543284204,68.00918397924696,64.19686871632764
101.0,61.34454174836464,68.97148586171456,64.32472093310129
102.0,61.79295018716844,68.42218215960261,65.35182016396479
103.0,62.36117310075577,67.31701377251437,66.54789555563181
104.0,63.19380237955525,66.84398887792241,67.71546909594457
105.0,65.46344504010494,67.26174824241798,69.58710522247978
106.0,68.14126708073302,67.38187268341191,71.54450857486307
107.0,70.0241805175948,67.05042286582469,72.7825670483223
108.0,70.69830804481002,66.84327989296517,73.26916886919389
109.0,70.2646724867706,66.76595760202113,73.40696393542336
110.0,69.91754958312072,67.05016356259841,73.4843272801298
111.0,69.9460878290782,67.24575621367188,73.32983329387021
112.0,70.4267615142229,67.25260379322819,73.19556668014619
113.0,71.2340944972123,67.17813111625749,73.09346207964265
114.0,72.08764874180576,66.92608255020187,72.99569468413678
115.0,73.07601461663485,66.38444557048025,72.68612954282872
116.0,74.24842422949718,65.79393755859515,71.59952317755291
117.0,74.7600661493263,65.58875945281737,70.06330796428581
118.0,74.24958816088538,66.15655750108068,69.22262091003226
119.0,73.64654911116345,66.79069189554437,69.01331320159876
120.0,72.94600589898353,66.22700124036191,68.76898217990907
121.0,71.96634029412988,64.86679132195569,68.30903679884176
122.0,71.17716414440763,63.8672035403476,67.47849375871662
123.0,70.82158126354193,63.58174814610063,66.55628521823118
124.0,70.52665017247341,63.76198520489338,65.49593582950786
125.0,69.683293140273,64.27345251690673,64.337758255466
126.0,68.65173428420427,65.05329098052651,63.866904438837594
127.0,68.49000562551089,66.19346883886033,64.2567990526353
128.0,69.4634531617424,67.55485084036444,65.14796257465785
129.0,70.2906112486479,68.4577142876945,66.19134565375504
130.0,70.68122965204545,68.91679689814401,67.03783913253007
131.0,71.49018857757103,68.93510751075198,67.54560261360888
132.0,72.04205106957994,69.00491458154265,67.56005812537774
133.0,71.14144650075377,69.53839075357858,66.66516388808967
134.0,69.3975274318581,69.82774811675073,65.66932718556305
135.0,68.24125293601665,70.17702459684696,65.95493069854518
136.0,68.21414431627001,70.99520584628847,66.79637546893781
137.0,69.0030701594684,71.64959936439318,66.58321869386545
138.0,69.8158597901341,72.5594003899742,65.26490944675416
139.0,69.84880612575219,73.49930723181363,63.436982245460975
140.0,69.09797839590284,73.77387331859217,62.07758519323692
141.0,68.01364895388942,74.12163838605382,62.16364860370806
142.0,66.90564768243921,74.68468814584587,63.13453511117255
143.0,66.20598883260591,74.51539760809685,64.17431051885669
144.0,65.9357684101756,72.76830805811885,64.83980082192717
145.0,66.4532149110964,70.54415437088826,65.03658062207553
146.0,67.61991132308681,69.52241583887711,65.15304682731981
147.0,68.45436617141148,69.36650780546096,64.6927467094814
148.0,68.34425229227773,69.1506560766366,63.1012971200034
149.0,68.16017904945436,68.72293018236056,61.66154765835795
150.0,68.38959965089592,68.4677483107184,61.560687730553404
151.0,67.76420517656096,68.56325185767082,62.33630412018304
152.0,66.11493543744676,68.42244681892907,62.95376365745416
153.0,64.08732684138184,67.85563335187726,63.03138624284805
154.0,62.49284777393709,67.46855169836978,63.41233594177454
155.0,62.015266752979,68.04193407579503,65.17855251945271
156.0,62.53025206883357,69.2081440165894,68.16814977418491
157.0,63.7965871096777,70.1726619364784,71.19111113924163
158.0,65.81972323639853,70.88386450484117,73.70650528073291
159.0,67.78617123918401,71.55509643648303,75.55636479757953
160.0,69.08154414152375,72.43371717954021,76.53786028582456
161.0,69.60383267325435,73.4815759578176,76.96947016183573
162.0,69.29308258436424,74.4200264881367,77.43683117891223
163.0,68.85008267817884,75.00047702738664,77.55878851253081
164.0,69.7179567078666,75.27683465727061,77.02599254512903
165.0,72.2961678711592,74.88862642402727,75.98016389769656
166.0,74.71463575000222,73.58811470271158,74.65282863385217
167.0,75.72082352963304,71.76108382714696,73.39239504592697
168.0,75.59792228409361,70.16212619494921,72.39215016000782
169.0,74.65754859424734,69.49390893413774,71.57432830121428
170.0,73.1477009514196,69.78416298392507,70.69799299110733
171.0,72.0117708724673,71.50123453875305,70.51722313968313
172.0,71.55215146402597,74.3688059300116,71.12244211574085
173.0,71.85783510351787,76.88381486833741,71.64135241924502
174.0,72.79383844528834,77.75817028683778,71.85066162129424
175.0,73.12461098848958,77.04279144558372,71.24776145823047
176.0,72.43882855846071,75.79344421182404,70.19351040662491
177.0,71.34349069906189,74.94541122397852,69.45995496275562
178.0,70.31235853172612,74.92652181511676,68.9078435390188
179.0,69.2434249016564,75.1408903868439,68.52151287361328
180.0,67.54762371941123,74.74183559177341,67.83827208691497
181.0,65.80523621771894,73.61815081930658,66.67836738192281
182.0,64.99513816302112,72.33567066621019,65.71695114155881
183.0,65.04660282742472,71.68091475418788,65.49193325399925
184.0,65.28842845147656,71.61395182534658,65.35356076030635
185.0,65.29250482670608,71.65433388856961,63.99069855420886
186.0,65.48861859760382,71.95490656860841,62.04836983472548
187.0,65.92443875938748,72.95113766999258,60.62205169429981
188.0,66.54594527815748,74.73468773715952,59.78729435853516
189.0,67.477323121935,76.54772755114874,60.27835696078502
190.0,68.06833691767288,77.30932098598082,61.83458652837934
191.0,68.53062586011731,77.24247063499247,63.88228513017599
192.0,69.40388174026481,77.19136724753332,66.6000549146504
193.0,69.876073177357,77.54737169889724,69.02977372836128
194.0,69.77130038524939,77.89178951816896,70.30628913945847
195.0,69.2664312917572,77.00926667711991,70.72899440599635
196.0,68.52773861228688,75.06292308797208,70.98061793486343
197.0,68.18007785354305,73.47184615964538,71.3662771101001
198.0,69.32764440534017,73.11638218803235,72.90446501817844
199.0,71.95855500158022,73.61115422871842,75.72040088420036
200.0,75.17185520564001,74.58584498227141,78.51596654525109
201.0,78.37800911401433,75.72866156098806,80.74777901528445
202.0,81.01829608985706,76.21064796093326,82.64446007968944
203.0,83.03452691364723,76.85219303920975,84.8362134435799
204.0,83.13340470045634,77.39613332923123,86.81051948352493
205.0,81.46150031772319,77.33066894264675,87.55814008192506
206.0,80.05309932653391,78.04335050318464,87.18179701060939
207.0,78.84407984255915,78.96574768923688,85.74403118548243
208.0,77.57248299002124,78.5762138329369,83.3781755047897
209.0,76.51965840455868,76.95666888201436,80.58685881014922
210.0,75.54323043070474,75.2729017404534,78.14553425595294
211.0,74.23321140446185,73.9298814542516,77.07413238496312
212.0,72.9880910415714,72.82362256586899,77.24770019782214
213.0,72.53170880468416,72.2399529588186,77.17071860134291
214.0,72.32695099156598,71.48974274692543,75.59075194890514
215.0,72.14940076991414,70.86925553758202,73.23781268295164
216.0,72.53645950391096,70.66710249005602,70.86774940189089
217.0,73.29586800241552,70.10600705002804,68.42349110229512
218.0,73.93669891685212,69.38831310628119,66.24005264427117
219.0,73.70280137844115,68.1062752289389,64.40645578132558
220.0,72.54570261522261,66.60952018202593,63.06391914505526
221.0,70.74599362296078,65.91796025864821,62.511343137987225
222.0,68.63502379426303,66.52471961758627,62.6656072284133
223.0,67.526591390492,68.02772597725051,63.27404142886658
224.0,67.88157711109946,69.46020942183132,64.65743626338761
225.0,68.60936332116506,70.89029516414813,66.77328956306286
226.0,69.14685639409979,72.11384726060928,68.94646647678586
227.0,69.71332387001407,72.17549217717736,70.1847614063929
228.0,70.42555485911389,71.43712194871964,70.31203892299568
229.0,71.35444279741166,71.15950194140298,70.42687811558464
230.0,72.58362612529866,70.80354601105678,70.3417803120426
231.0,74.26576023175818,69.69495064200277,69.96952864476033
232.0,75.97266356070105,68.0884502689579,69.67038813741155
233.0,77.25287565914722,66.47411444065199,69.72442658236709
234.0,77.37762962875728,65.0619248277018,70.12621336475581
235.0,75.81976510532307,63.97378569664724,70.51065616860242
236.0,73.29733803988243,63.52778961547979,70.8677035377362
237.0,70.48416809666884,63.56811315470755,70.96582001277461
238.0,67.88064780272462,63.63569204223701,71.2017885677594
239.0,66.01236314803462,63.54722428080014,72.09939057791782
240.0,64.90561913219763,63.443609073555464,73.26327977131244
241.0,65.00623460071338,63.54165966994784,75.0839175547799
242.0,66.37552737553403,64.00426244673868,77.80997772832126
243.0,67.63957724503572,64.6250069557373,79.52381075041143
244.0,67.9205010091847,65.00899132076458,79.19922685070753
245.0,67.58646915514605,65.03445202258497,77.93799293775736
246.0,67.08916063267102,64.9143651515954,76.22367503855209
247.0,66.53752484951846,65.17364100385468,74.32954279865126
248.0,66.63457522752444,65.72362131208948,72.6375566852598
249.0,67.55420997323746,66.53032521177082,71.39757692995876
250.0,68.31436259324958,67.6056727841724,70.60615295144228
251.0,68.58646719867127,68.45118019857226,70.18463468299312
252.0,68.88631946065777,68.70256096049704,70.51714517255944
253.0,69.3198925686101,68.9699256559848,71.79998350167418
254.0,69.7097193145731,70.04937185589054,73.47811475948546
255.0,70.34748419072275,71.59396468663337,74.55097546983815
256.0,70.74074362894397,72.67350518813335,74.81280527227443
257.0,70.92575055361274,73.51347003492126,74.75592823435632
258.0,72.08120763307171,75.16923682198197,74.88820893757774
259.0,74.26891385099228,77.99393124560113,75.68689540896453
260.0,76.47166260788063,81.87140882086067,77.31612974678666
261.0,77.54265647683575,85.78214341112137,78.95496464227409
262.0,77.25752910791505,88.35229822698156,80.18023961497482
263.0,76.61516241592783,89.52768551955761,81.64043149440269
264.0,75.93292853774864,89.9967006196607,82.94540959737856
265.0,74.57520795152635,89.8181233702808,83.51482002181432
266.0,72.32221841300114,88.9630417621484,83.99963448739624
267.0,70.35358025719326,87.01491206473922,83.50514113181215
268.0,69.82526228059812,84.15928828227344,81.05040014110284
269.0,70.34741473110292,81.74603282395685,78.04681532395516
270.0,70.72387522703237,79.75186181511863,75.82944191704539
271.0,70.83134753575798,77.74189476044194,74.35846671379365
272.0,70.79470109522087,76.58029317580252,73.05516744339499
273.0,70.74913317591228,76.764692169222,71.60253835237438
274.0,70.77656697919704,77.81847159704358,70.14051700666255
275.0,70.31856273115537,79.37829160662362,69.02942370001335
276.0,69.08984399043713,80.96614365105293,68.3081912798791
277.0,67.94352464123735,82.02158204427343,68.42870022795296
278.0,66.9126897497656,81.58797010184759,69.87804399306987
279.0,65.29668219337468,80.20237500123763,71.91675923441612
280.0,63.35146436696639,79.18499865368726,73.55259315122623
281.0,61.23496616430708,78.14115991544021,73.65067575919178
282.0,59.175811249564106,76.70349663076804,71.97824276827946
283.0,57.34195804918335,75.20943301400405,69.25439835970671
284.0,55.42618443329084,73.57858720818818,66.13654030737796
285.0,53.80020014544072,72.10651959482371,63.99342680804865
286.0,53.738661962643825,71.72477199239498,63.04484801659623
287.0,55.71312457498268,72.31010879033096,62.49385182923927
288.0,58.60904636108451,73.14373257445219,61.9740328860888
289.0,60.907197422338044,73.7991270548864,60.90094022450103
290.0,62.449949758324365,74.27398313623577,59.93456732265653
291.0,63.66088916578255,73.82888794987065,59.85879503782245
292.0,64.27672877524755,72.10601927734616,60.00976583843844
293.0,64.26627310018792,70.50468688886457,60.16014082720929
294.0,64.44325369776004,69.51732955638307,60.332808604358505
295.0,64.83505360029153,68.85098680648879,60.91945477216249
296.0,65.02873454686524,68.21805125358581,62.5008045348335
297.0,65.15204586763417,67.8688111146768,64.35329713593728
298.0,65.0809692051158,67.89263790161462,65.57304119112621
299.0,64.24370379948546,67.24385936210805,66.00365479366889
300.0,63.04186732146607,65.80323951771437,66.27264298899962
301.0,62.71247600196018,64.45313135467802,67.02621616443975
302.0,63.47123475638731,63.667292948530154,68.61869976196519
303.0,64.45305930809299,63.390040075167626,70.18266855773716
304.0,64.86835660839495,63.03928134675545,70.62060659948956
305.0,65.32894682918,62.63879426722515,70.53576624240986
306.0,66.52829550845601,62.40669983045072,70.19731226928111
307.0,67.40549148310373,62.621025944194706,69.61901019627592
308.0,67.23628533070493,63.078900310686905,69.6798680385589
309.0,66.60392287471439,62.856496875419566,70.19399764083772
310.0,66.06244962354494,62.064729574222426,70.49737788061155
311.0,66.35055685309753,61.455600873690365,70.80109054458208
312.0,67.40750817180631,61.0717865641712,71.18259403964929
313.0,68.62451139690941,60.909577770913074,71.45791877549023
314.0,69.54228700053797,60.60457012420817,71.43089200663947
315.0,70.04593578749818,59.85170525779985,71.30350579030814
316.0,70.42364266351382,59.73543001595508,70.93669964043686
317.0,70.86589623567359,61.33298871652127,70.22776846246508
318.0,70.68986984112877,63.83308961718897,69.66954806528983
319.0,69.75257530987828,65.55455749822484,69.23224708414229
320.0,69.1273994029174,66.24795355339297,68.59488184078644
321.0,69.27945806130828,66.57044549859397,67.68228753717437
322.0,69.81155944266962,67.1608205502992,67.28194571269132
323.0,70.0284214223607,68.16373539230254,67.65610619352708
324.0,69.25649751646225,69.49100573272992,67.9021916259232
325.0,67.63391586020498,70.5852016974635,67.81665120729329
326.0,65.70888492774904,70.34263646512693,67.28292783114533
327.0,64.05707593758211,69.18120343214902,66.50460972527986
328.0,63.058769149323965,68.05313219788057,65.80894054850032
329.0,62.61350625254833,66.91871056966416,65.4414354498084
330.0,62.65413843105356,65.52492513850328,65.34899834564939
331.0,62.731393948568325,63.968598910298695,64.63216896097241
332.0,62.05881999600147,62.26636133058977,62.60779199840354
333.0,61.27197709888424,60.775328160414126,60.3031391628465
334.0,61.108090191410234,59.640636919114534,59.02556731505496
335.0,61.191099093834204,58.494185285321095,58.85535646050388
336.0,61.57816957593247,57.35427574156663,59.49464246434029
337.0,62.34104483880759,56.59148558139826,60.431342751404756
338.0,62.98230535870853,56.5912093157137,61.09105285820227
339.0,63.1604794820685,57.43156982308479,61.85245715342227
340.0,62.96479300694717,58.572229604686896,62.810412780599634
341.0,62.44723852943473,59.423222632642606,63.24345690131256
342.0,61.122758502775625,60.13756235236914,63.18507816529214
343.0,58.634943577344295,61.326612113238824,62.567168720432264
344.0,55.68874615176407,63.10148052870712,61.737692687622996
345.0,53.63018531214439,64.82731196841904,61.401949989633174
346.0,53.2438575067492,66.37815874595101,61.425125807313904
347.0,54.09244934173813,67.79023179786134,62.18090828510229
348.0,55.713805080968285,68.80849283448089,63.68628897405161
349.0,57.447519015017825,69.2504013620915,65.07158630566214
350.0,59.097622934924075,69.61333401348112,66.32459172832979
351.0,60.94333973640582,69.89244118293111,67.71026961984515
352.0,62.85714539741033,69.83608213246815,68.65390624805661
353.0,64.36977006300219,69.40040460437103,68.87957165440807
354.0,64.85451892748928,67.55391026338846,68.7301661621419
355.0,64.75981107375976,64.77562047195501,68.71402185464271
356.0,65.12079979375827,62.943021597648745,69.05249975886545
357.0,66.90600496996997,62.706759767840666,69.72788083925029
358.0,69.49201697948965,63.3030992041639,70.14966533075354
359.0,71.44169447546307,64.06638930671555,70.44044230894073
360.0,72.38100838631779,64.7436841757023,71.3068531006414
361.0,72.90943678402554,65.00958117264875,72.3733666914048
362.0,73.75555111338963,65.01405785792237,72.9916122045309
363.0,74.46719206863945,65.26601655086303,72.88757283567341
364.0,74.36736487856875,66.48204417351612,72.12388209056033
365.0,73.80107211216226,68.61699532168689,70.90482734100311
366.0,73.60974086898673,70.86650986389107,69.49658603344308
367.0,73.61662143376569,72.63493611913407,68.36489480158367
368.0,73.34856373632475,73.65638115697132,67.25903328787494
369.0,72.8205479900894,74.17847334273691,65.9934530416463
370.0,72.0932344704991,75.04014514322984,65.76613812274445
371.0,71.19233372670547,75.72016730205955,67.60803273520374
372.0,70.81616687086667,75.66787856310177,70.74784291043294
373.0,70.77332581673059,75.0304047836023,73.73553413846687
374.0,70.51124958495113,73.4725753631833,75.41754085891024
375.0,70.30496324912755,70.95495994574657,75.47576367449858
376.0,69.58961829800721,68.13627796165274,74.27409705948612
377.0,68.7621529154037,66.20380435949653,72.79236347097924
378.0,68.76703285508103,65.5007261340511,71.56679817583226
379.0,69.01963876840396,65.45669846789134,69.98233015318924
380.0,68.5108012952346,65.51173894779274,67.98916927078852
381.0,67.878960572208,64.91349014169684,66.817069426324
382.0,67.59909315756428,63.49419553502799,66.48615302069993
383.0,67.02937575224148,62.38080665923516,66.33968110875556
384.0,66.15229721388442,61.98447365234412,66.35264005469826
385.0,64.70364623093431,61.845314392752826,66.28787290209299
386.0,63.025572320874,61.70775606673929,66.02638958500457
387.0,61.89827968945363,60.72385289335965,65.44982817713046
388.0,61.59789062153209,58.32595553341966,65.12317344528806
389.0,61.868383841729376,55.368176416740226,65.55915309629836
390.0,62.15869242343809,52.94985559768172,66.5829844883996
391.0,61.89190852166121,51.648521041288895,67.37838399115785
392.0,60.88307021267873,51.36727675030423,67.52863374831853
393.0,60.276050578497575,51.802984156992935,67.68115186005299
394.0,60.879295677366386,52.55511944350801,68.76010429793317
395.0,62.03165857155326,53.35549376911769,70.61860044139982
396.0,62.270087168471164,54.150307744812494,71.38436623167894
397.0,61.383591955346255,55.08973790107194,70.1226109549186
398.0,60.55812060413041,56.61478735034231,67.93269996663584
399.0,60.63466564692622,59.15681063809804,66.13520256191444
400.0,61.753216686536824,61.70025708456181,65.3615897877819
401.0,63.2384251953347,63.4229354135203,65.37352982916885
402.0,64.67703241567573,65.11964622630902,65.2576925937051
403.0,66.06379262640327,66.5524694798397,64.44085733892472
404.0,67.26014780094535,66.90512789717697,63.00274504902149
405.0,68.5276533344858,66.55391642073876,61.25916293423172
406.0,69.20285127631688,65.69757624585738,59.04620983219401
407.0,68.4124433914977,64.61933150084404,56.72969637011061
408.0,67.11062389073386,64.03993898634276,55.53436040402765
409.0,66.83547262679316,63.88678533582888,56.19003667296619
410.0,67.84774549228992,64.3376055740888,58.81770176552348
411.0,69.05180404212358,65.9328963404667,62.94842028014046
412.0,69.76020912079125,67.46273005830821,66.99924840803331
413.0,70.14465700462337,67.82864448168922,69.56056625718706
414.0,70.4563491017547,67.69603251759789,71.28297413842563
415.0,70.77670323074959,67.78989591738211,72.7009703266643
416.0,71.30891150758512,68.44290709593035,72.91730222229715
417.0,72.73862051327431,70.17142247113406,72.43655073373351
418.0,74.40219156471792,72.37590902378659,71.83173081188856
419.0,75.05324292911038,73.81563178350416,71.69024780221078
420.0,75.36736330017328,73.96906361441843,72.55517153944925
421.0,75.95209250907382,73.0309962476502,73.33966900098915
422.0,75.90687755869175,72.07039448166671,73.53418560646867
423.0,75.25604523976796,71.92026777512787,74.06024141583733
424.0,74.50470438085412,71.82849465655003,74.49739128464387
425.0,73.87211283289264,71.3593526333372,74.65306893462444
426.0,73.57684885160535,70.88303257975008,75.18374436993237
427.0,73.66206542860274,70.61614539322908,75.70512725698705
428.0,74.22021074430769,71.0394175251748,75.74425694086509
429.0,74.99141690565857,71.96232526509539,75.03375896065941
430.0,75.57710581092246,73.60083765417585,74.15662270667261
431.0,74.97510223483998,75.04460915852088,73.01482149692045
432.0,73.7022956108522,74.93942622297655,71.38076409257096
433.0,73.1499919807047,74.44728945528784,69.7787556024062
434.0,72.86077496661032,74.14939007912272,68.57018460086232
435.0,71.90633237757423,72.8601888147767,67.29169290004454
436.0,70.51837998578293,70.80160478173595,66.10421128479052
437.0,68.73924584845102,68.80602129893957,65.55614666478549
438.0,66.74966095650727,67.22195180556076,65.30590510636019
439.0,65.20697613168585,66.71776647957935,65.26059686399391
440.0,64.03925268060067,67.34769671966188,65.65965656587733
441.0,62.669289714406865,68.28514779105511,66.34151468247478
442.0,61.37940157415318,68.69617475263102,66.60116190178178
443.0,60.39957681376508,68.22289420787526,65.86919203745862
444.0,59.77455988164294,67.19192469799908,64.69855648904648
445.0,59.26674828059942,66.19467462101345,63.65462391659643
446.0,58.45765230424837,65.85290875902699,62.6667242221675
447.0,57.91884522107974,66.62647069563975,62.32346550184942
448.0,57.98173445768366,67.89547603044102,62.32713024888056
449.0,57.98976600189519,68.90696204899879,61.91884906424409
450.0,58.079358174060744,69.48191674871441,61.48132107668942
451.0,58.79552482920824,69.37148293147213,61.60950431502083
452.0,60.11257122299073,68.44690855175637,61.86646112676205
453.0,61.815701342360946,67.22623477288717,61.70119420649722
454.0,63.44730393556392,65.79630372968253,61.33998620723455
455.0,64.89241681493435,64.22565641093021,61.30107210355534
456.0,65.92995674421115,62.89606069482,61.34721144666676
457.0,67.05420591567557,62.13584434298505,61.3921106025968
458.0,68.7054960686505,62.199406609420095,61.53388901133336
459.0,69.74107046039624,62.43282506199472,61.46857658299852
460.0,69.82178654551105,62.13004770894686,61.16882835439652
461.0,69.94425601840041,61.54424124378645,60.907208494359196
462.0,70.37693953967276,61.59288286618822,60.86512368797055
463.0,70.68130479147969,62.24324497761936,60.93169606052343
464.0,70.39621269682588,62.7308392285465,60.51049244095313
465.0,69.77268335922322,63.55729466955352,60.124605734567155
466.0,69.60206471452172,65.10740512921018,60.810602472463934
467.0,70.3778512530012,66.8934725622368,61.857401218941654
468.0,71.25854228204368,68.03080689373098,61.970738478026746
469.0,71.44739457392716,68.31275287106713,62.3428996126342
470.0,71.46896715836316,68.67347604466701,64.22884811872713
471.0,72.1695766131333,69.55161637324576,66.76814791734762
472.0,74.09054789081733,69.99933544050091,68.826691650536
473.0,76.0685299508647,70.05725531940405,69.87046089401869
474.0,76.79487548825391,70.80215637002469,69.79645057436464
475.0,76.80828856108587,72.05049237038656,69.3730390327782
476.0,76.44322086839423,72.70899252178619,69.75830815936182
477.0,75.65300302961406,72.62299489151724,70.37932140668951
478.0,75.18173785318498,72.80623523422581,71.030157485302
479.0,75.30877534776572,73.03508099123192,71.79871506935727
480.0,76.47780269040805,73.05931719232336,72.53228131491663
481.0,78.67668421784771,73.45272287065742,73.46920439826371
482.0,80.42964952537523,75.19995114125918,74.37515126584086
483.0,81.50934118671435,78.40711478062468,75.18697780853738
484.0,82.77551189315102,81.40247368384814,76.77472863259159
485.0,83.86187802643708,83.68730165861247,79.24069228981415
486.0,83.6581440582684,84.51091448203967,80.84528473274537
487.0,81.89177038117626,83.39333428089043,80.64044124293625
488.0,79.63051996732796,81.79922318550028,79.2816101374272
489.0,78.15799753391624,80.66313898280607,77.8291350696236
490.0,77.48265517382531,79.87750026788835,76.47344008136989
491.0,76.16153141278281,79.14947174319943,74.63980554201942
492.0,74.07367258722869,78.15164556603482,73.26680150280544
493.0,72.40418236461437,76.50740404286087,72.82762224572795
494.0,71.75647763797343,74.47138634942625,72.3413579368849
495.0,72.36694864467712,72.97045723499515,71.66968219784326
496.0,73.33349458759997,72.07548142489874,70.88609268809606
497.0,74.10356601851414,71.03421138871795,70.01664481185482
498.0,75.39652909632314,69.1610081251278,68.94867139896144
499.0,77.42652850740913,67.21165415516016,68.02957536351522
500.0,79.38722245872395,66.11457526462706,67.49979689390523
501.0,80.30672743342754,65.05183380267064,66.94675063616305
502.0,80.03477322091214,64.23713036291193,66.29466528098212
503.0,78.72665589537789,64.21645829029791,66.12936062844469
504.0,76.6503785295157,64.49831204131154,67.03634306005786
505.0,75.27603480154026,65.12049565437798,68.81466063495841
506.0,75.83580272799169,65.83262870908469,70.60047136363863
507.0,77.07269614298833,66.19900120216798,72.57078585708246
508.0,77.29532321077066,66.10985363057912,74.64962886887497
509.0,76.66371994820275,66.12616033120037,76.31572940089357
510.0,75.21949114116828,66.26323055120346,77.07091525163655
511.0,73.61272370743293,66.80280641958068,77.40444577189757
512.0,72.66365697498371,67.46286736478284,77.25085102174634
513.0,71.6871870133589,67.44526432247964,75.70239478011023
514.0,70.31036561416747,66.86843060861925,73.44889818489445
515.0,69.15588581215174,65.8493978247131,71.76831320061778
516.0,68.52133778043911,64.84246874051473,71.17889331752521
517.0,67.81657774169415,64.07955637824094,70.53307471976453
518.0,66.50417113777881,63.00851547458542,68.07609130852322
519.0,64.62169881327239,61.67842872077621,64.68450840130703
520.0,63.21432830665073,60.37109465927362,62.27085682056277
521.0,63.056027813219345,59.18604920386776,61.075102756962885
522.0,63.980782919407844,58.70864168229393,60.84475218379279
523.0,65.62024008897532,58.75283667033083,61.37891322550314
524.0,67.15163367092907,58.11149831242659,61.60384629493718
525.0,68.58196041229483,56.923329880420226,60.99295524894896
526.0,70.1787665489835,56.402479876611444,60.698616912180164
527.0,71.57103888331095,56.92798661937485,61.92127720209388
528.0,72.74671787458345,58.12179575556943,64.00988288871282
529.0,73.17267560500504,59.10711260572126,65.94911125752785
530.0,72.49844781122567,59.50865431383168,67.74897015448649
531.0,71.29823342598092,60.06049075414981,68.95988054667923
532.0,70.58456009376347,61.54185221373162,69.35734298661735
533.0,70.48363499303086,63.03627941987347,68.66333914707239
534.0,70.6209839928701,63.60818728373362,67.31916547406195
535.0,70.8248336155788,63.62174386332569,66.01488401951542
536.0,71.16120664378926,63.396904113757856,65.11608189246034
537.0,71.53115522696133,62.63364454598707,64.3422946251087
538.0,71.89236472006175,61.69577803634028,63.740673817319255
539.0,72.84112577827918,61.27559475235931,64.36323239262718
540.0,73.85929909605629,60.714769162549395,65.54925870370373
541.0,73.72924320072944,59.891471497053196,65.57875666550662
542.0,72.80975284868146,59.52477864180006,65.06206297180188
543.0,71.21575950541472,59.35397482278998,64.95939432585912
544.0,69.01094505014437,59.0530056484354,65.20698492810465
545.0,67.11220018975355,58.88524966482662,65.32013582560509
546.0,65.6849621760432,58.459709964123434,64.8563143200067
547.0,64.38492115395115,57.67587170527188,64.09503344923351
548.0,63.42554538456653,56.96055900172928,63.05277738945568
549.0,62.50101909182506,56.08398774054911,61.64502791851725
550.0,61.83717559377855,55.72050910986952,60.20501170024627
551.0,61.84754880265774,56.359256008323,58.91362592221559
552.0,61.96187625356649,57.3743960941897,58.0169500438005
553.0,61.68346785941397,58.35191266529908,57.77134068923192
554.0,61.07895369526958,59.06929370790551,57.484544442560455
555.0,60.554206260934265,59.76075057913153,56.58855700502562
556.0,60.41467796941974,60.89308092535417,56.15030295948024
557.0,60.612107536932406,61.966984691325884,56.74541770174758
558.0,61.19738621868601,62.89683113853235,58.039936866268754
559.0,62.324619326462404,64.40470317318508,59.351583862142846
560.0,63.84513997459468,66.17672802082895,59.86127973480842
561.0,65.36879314673367,67.68252527559504,59.79605615908094
562.0,66.57898347382942,68.86426017961335,59.98445597628656
563.0,66.87796609633511,69.51533747933287,60.351733344103906
564.0,66.49601820140568,69.78028809659051,60.66662200972306
565.0,65.98806191259506,69.52966987929467,61.339500376042956
566.0,65.19009187926798,69.2954941804436,62.47981606637524
567.0,64.16360597539087,69.34408126981086,63.23834444079676
568.0,63.28269171332953,68.82296601105392,63.443486091226404
569.0,62.88469988113955,68.1334878822425,63.985579072772246
570.0,63.246963188306594,68.61260941581912,64.83648536732781
571.0,64.43066848031059,70.16909596133712,65.54256213237501
572.0,66.29524936110684,71.64836823813357,66.53042151019874
573.0,67.97451360912045,71.51591370119397,67.22154774683992
574.0,68.88998708813078,69.83619037860257,67.53655807671622
575.0,69.14353776931009,68.44781859040785,68.23658033972953
576.0,68.87993663744658,67.70295482054311,68.96912782383619
577.0,68.71867733994988,67.09543266183071,69.51897835461384
578.0,68.76505016487702,66.31799495259175,69.85780930929903
579.0,69.48558799774008,65.52758355248795,69.53602043124347
580.0,71.18338755546924,65.46630475771717,68.8677314810049
581.0,72.51907929575722,65.83236283470185,67.67067712172218
582.0,72.86882927446105,66.18602771500811,65.76219968523355
583.0,72.5330413632062,66.84540090346538,64.0374377215134
584.0,71.42544545243963,67.83829977847523,63.302857526454936
585.0,70.02831974550715,68.54526830491355,63.5917595895495
586.0,69.10237234640672,68.38387900894932,64.33538828051164
587.0,68.55292579501767,67.63456386354504,65.35438089967283
588.0,68.15219029688939,67.51919865240215,66.66673258054536
589.0,67.44169262294866,68.32061483637897,68.2607510101744
590.0,66.61736771838893,69.1885571706391,70.30372881181516
591.0,66.47244332649883,69.31126800855579,71.56890902484798
592.0,66.63859336057212,68.3300654972441,71.04196655920362
593.0,66.81630746931883,66.79903358429686,69.63671602469974
594.0,66.85949489885923,65.57319406908883,68.81823153860823
595.0,66.28961087029022,64.6575771660072,68.12068218094272
596.0,65.34807961030833,63.82483312397624,66.97590802707576
597.0,64.41533198336253,63.555440703316165,66.0275446185876
598.0,63.59657380172704,63.97772292232648,65.24138281138325
599.0,63.01715360013968,64.6653865600631,65.04186161374874
600.0,62.42438118475926,65.72847381802865,65.7545855865353
601.0,61.79408649070618,67.03716743315206,66.22562304879766
602.0,61.67555326373011,68.37724650215647,66.43776942314524
603.0,62.273650685808654,69.73672323177547,67.10552019727753
604.0,63.00744446733408,70.30773263791995,67.57941197173527
605.0,63.548539925419675,69.28773434562937,67.43660912018666
606.0,64.01821714069884,67.40075355081437,67.48212899540628
607.0,63.62583513735293,65.66306939163081,67.92954447349625
608.0,62.69068683688173,64.69808407071696,68.5459833252545
609.0,62.50188183352011,64.43792608279222,69.10941576084264
610.0,63.235272842199485,64.63954086811043,68.97771189943703
611.0,64.16905669689872,65.53631923531036,68.86221534202275
612.0,64.38031624979892,66.57557374533884,69.33317701375451
613.0,64.15800232181921,67.35195073166635,69.76325608052738
614.0,64.32145910491748,68.1307772684272,70.58947468643359
615.0,64.88970418998234,68.02279695204452,72.42918281613542
616.0,65.8765583924542,66.53398847599726,75.04054074765745
617.0,67.30407119440241,64.44408183445461,77.23403298116989
618.0,69.07672830417167,62.34569670432362,78.04486138876183
619.0,70.66562056008983,61.41564479125598,77.24809249456538
620.0,71.74817140866176,61.95809580393922,76.19172333382771
621.0,72.50749613515524,62.70534556756092,75.69902012165139
622.0,73.15777107127228,63.50561114502529,74.48693192332007
623.0,73.13026292837807,64.71875609378988,72.09049773448484
624.0,72.3129763539418,66.45384316327075,70.22408702665953
625.0,70.76582810549408,68.24662573365151,69.82300240970484
626.0,68.80597596651131,69.55752768297998,69.96829816203393
627.0,67.43235201850479,70.66430473192698,69.50973380950197
628.0,66.36504304477205,71.5453572068075,68.03027658810277
629.0,65.5647752257097,72.0155259713707,66.67233381429065
630.0,65.22629565733398,72.32494175054677,66.24074649591188
631.0,64.71093638635058,72.4434012928954,66.85881121125003
632.0,64.44304140983806,71.97685751080839,68.17297472665021
633.0,65.24396945442733,71.38151300193299,68.8710609465836
634.0,66.65797008619046,71.74769660323585,68.7402425233793
635.0,68.25686903558085,73.05139865368598,68.71502997391086
636.0,69.87730923526065,73.96502646388896,68.89029158578374
637.0,70.95963161126834,73.70708992538036,68.68626148168205
638.0,71.38987081578071,73.1317837053741,68.04715404122888
639.0,71.24442165936922,73.00353498542712,67.55391974345885
640.0,70.64236313861264,73.48556350865181,67.16454126851221
641.0,70.07088712432866,74.17229167427274,66.66199077959789
642.0,69.42804281696951,73.79297678799225,66.27959133873061
643.0,68.63178252128235,72.17576592831898,66.59408851070637
644.0,68.36965313747963,70.31945763007799,67.59196132253074
645.0,69.08561178408802,68.99112211720818,68.70750442873572
646.0,70.55554115304884,68.60891518409836,69.57163962639142
647.0,72.52270718588122,68.58140847642116,70.0051958822664
648.0,74.42512211024686,67.92137380707868,69.91588841072428
649.0,75.75667340202324,67.32655370952847,69.32586423838757
650.0,76.58326321156777,67.39819893540077,68.45524395267576
651.0,76.69250127378983,67.43650942991138,67.00163559319566
652.0,75.34970182542627,67.28161086036701,64.73875893764247
653.0,73.19894073264902,67.40315186980325,63.39733128059611
654.0,71.18343601655317,67.8025745620764,63.7997202176643
655.0,69.61733298061517,68.12404383569941,64.2515794372149
656.0,68.2922331469295,67.90898616160165,63.720877997648245
657.0,66.80467791858945,67.64759544141543,63.22196431364389
658.0,65.13708553220906,68.49038819207135,62.81351389598808
659.0,63.021830624446324,70.29397692256617,61.72819940432355
660.0,61.09379237544016,72.06151503658107,60.54185976061478
661.0,59.951666100637844,72.63674874899452,59.97449691175311
662.0,59.38740459060057,71.82152200524526,60.02112445600254
663.0,59.432503217292215,69.55334858276596,60.39456232072124
664.0,59.98027223606523,66.72172645166323,61.113350028606945
665.0,60.5738905338224,64.65125953047895,61.7891515820743
666.0,60.55858990181265,62.93273103202169,61.90579302075231
667.0,59.83830712149667,61.12119595070633,61.91369810369298
668.0,58.72156742206998,59.51268572589215,62.37885743091612
669.0,57.75860533941404,58.6500879820084,63.65641833879851
670.0,57.399925838350796,58.578780124870825,65.30487993098066
671.0,57.203088999265425,59.17106317084639,66.27407390736325
672.0,57.16721837535946,60.2243394120969,66.63438636517748
673.0,58.211023070698744,61.33211972662701,67.03029562087795
674.0,60.05178806583423,62.65027410496562,67.47966792380835
675.0,61.50103932874207,64.40207426571227,67.74451981250704
676.0,61.76909165218965,66.26270292973257,68.14502500529491
677.0,61.417803755235155,67.26826356771957,68.95687656713943
678.0,61.23476453464794,67.03154414135474,70.04273987635808
679.0,61.00299984849312,66.49933305234134,70.63296439654216
680.0,60.883319013669954,66.20483858570435,70.55187925447065
681.0,61.27057880659037,65.80331991240885,70.30412644544272
682.0,62.179939479042204,65.39465383679618,69.85775559109075
683.0,63.24476288258308,65.3147447872241,69.49099255116565
684.0,64.69006555045556,65.38454120419141,69.52957704051211
685.0,66.51868446404856,65.12359727894398,69.30436266963338
686.0,68.16793895874939,64.46247018407647,67.97622538041936
687.0,69.34958057905419,63.83890238338086,66.17764057006151
688.0,69.78213080951119,63.28170453779504,64.94435488570065
689.0,69.84707529671313,62.729645267470445,64.49249341574853
690.0,69.72551754708392,62.20395275602781,64.45717284829051
691.0,69.29602775182539,61.399145572705905,64.07434239694011
692.0,68.6436076698447,59.98538291680729,63.26226717198672
693.0,67.85113728943821,57.97633884655602,62.39022800343844
694.0,67.27758977809455,56.434677156681985,61.96669064790738
695.0,67.60672702615824,56.221893216923135,62.10243647969653
696.0,69.02948423804872,56.8641553657118,62.19149022255736
697.0,70.14636344107222,57.69993141331746,61.84420143367415
698.0,69.95340512208672,59.0490384227761,61.41747860805219
699.0,68.95216591558989,61.01394508171437,61.36838957179589
700.0,68.30382104892121,62.87249766233453,61.72940326304227
701.0,68.17030199108908,64.31699186576856,61.96231394033757
702.0,67.77469646961569,65.35494873402884,61.50890407154376
703.0,67.52981543055292,66.49609279814625,60.66988981656492
704.0,68.00957152419231,67.86773368266608,59.91615091776024
705.0,68.75371459510406,68.91967194587923,59.526819316545286
706.0,69.14103177157912,69.60072222792016,59.584798351934886
707.0,69.02870087969916,69.87416300730759,59.998847972956554
708.0,67.93078917221628,69.77239100664657,61.10111125263053
709.0,66.58236379315682,69.34629733382697,62.811066554274
710.0,66.34714432353515,68.12799291525256,64.76885061855474
711.0,66.5681225521844,66.51699537521249,66.92974785170284
712.0,66.56733962777282,65.53587098284224,68.71825539658305
713.0,66.56275011402047,65.23445710749483,69.84501502035484
714.0,66.42234272104835,64.66487274423316,70.76728657618483
715.0,65.68525332059906,63.71258900017089,71.50688969470143
716.0,65.30622710385097,63.09989704755078,72.22457558657437
717.0,66.34121680443965,62.60612032374341,73.20529320800344
718.0,68.22981840776748,62.34935195401078,74.38514466946796
719.0,70.15546381136998,62.329810675837535,75.18073047707307
720.0,71.83155500318624,61.9241094883682,75.60668074065488
721.0,72.60251671993421,61.50577483968706,75.92225865480164
722.0,72.39489879951945,62.11163697981518,76.35172639049773
723.0,71.59025396009831,63.54907388299784,77.0731510062009
724.0,70.34184391111613,64.96559213870786,77.83278712769261
725.0,69.25554190358679,66.29569121593205,78.42470012000408
726.0,68.41707840709441,68.1642467758873,78.77318034696172
727.0,67.84864974651089,70.67101069520294,79.44432338490485
728.0,68.17710970633168,72.83528738721552,80.42743110286
729.0,69.70442399260834,73.49877442940264,80.63889656967227
730.0,72.27819145086586,73.38976348512533,79.46233599411326
731.0,75.34552577379344,73.8845981050361,77.69236205810218
732.0,78.1796541632023,74.49306959053384,76.87352520212413
733.0,79.90552634151344,74.92445137926414,76.89959635225792
734.0,80.9670995596731,75.55546933208252,76.92806293810189
735.0,82.44550309661416,76.7069864373741,76.9837557383246
736.0,83.77719295918911,78.76679529626298,77.39568675958415
737.0,84.00931046520385,81.63952993844252,77.8421710813331
738.0,83.48303364567069,84.58237058535912,77.91467313760847
739.0,82.65569807299097,86.46766751324472,78.08934054882793
740.0,80.75358641542078,86.43171875012527,78.02821927850064
741.0,78.04692134073716,84.10328769152666,76.86620813710516
742.0,75.59422661107409,80.17421104822559,74.90278260963233
743.0,73.41186328469614,76.77033889867708,73.20559629048886
744.0,71.07104328737714,74.72618896367965,71.75660526727007
745.0,69.33204560400681,73.3365602775998,70.41037880514351
746.0,68.73330072189829,72.25457230034615,69.31618595922927
747.0,68.66830912153527,71.93158935637146,68.52499363082359
748.0,68.87284258214521,72.44603940702207,68.30240034679692
749.0,68.93656245720065,72.72086668755585,68.24015064140814
750.0,69.02835843441846,72.53961405035214,68.31570961491855
751.0,69.95311677217978,72.69446854576896,68.91407590500016
752.0,71.6935863305281,73.41809389485559,70.46034413362405
753.0,73.53789160413437,74.39577606444149,72.88395413167956
754.0,75.04651741206713,74.66009790459279,75.04891136145903
755.0,76.09621503782482,73.92245962441255,75.91204692508063
756.0,77.01107941103282,72.94163078311092,75.18935569861077
757.0,78.30618265561445,72.59247705644111,73.61529328462571
758.0,79.1723147337733,72.84480371723335,72.13139596450259
759.0,79.40115755385801,73.5762343881638,71.48734687330551
760.0,78.60844811420772,74.59932513888903,70.97749143117603
761.0,76.77090516450825,75.28290366054978,69.83226905928203
762.0,74.63220591081539,74.8403819627969,67.9419134872594
763.0,72.39324072699758,73.16906869348988,65.36697797525416
764.0,70.25997129516954,71.36000466376423,62.87211687545115
765.0,68.19896932665877,69.78291299756965,60.90709698834053
766.0,66.45075445924142,68.63938399624405,59.67606181312426
767.0,65.05113839749752,67.60970274138832,58.7113295173638
768.0,64.0486876101767,66.53745179750204,57.58182092584877
769.0,63.17918217036181,65.44973595035394,56.54445047132836
770.0,61.88865058751289,63.93039248592892,56.064620310578576
771.0,60.25367669450357,62.321286209264194,56.131417613272525
772.0,58.83213127852007,61.146138850015376,56.53646368257817
773.0,58.53391673608778,60.50560828124193,57.53014980903636
774.0,59.582217431295305,60.34544378126563,58.740562223893335
775.0,61.45875759885004,60.439223324437314,60.0645596581461
776.0,63.92340911675203,60.689973166061655,61.889595345224485
777.0,66.12296510446969,61.41894688739427,63.8716142192027
778.0,66.78359083911458,62.31995205924548,65.65334132350962
779.0,66.05092542837288,62.5297930732899,67.11128480447604
780.0,64.79358628372998,62.50519856490983,67.74715426994996
781.0,63.38995160700689,62.469124443501514,67.47344438358778
782.0,62.58501782382349,62.47943276594378,66.78455747958152
783.0,63.1584580831262,63.25330008431244,65.97215083413586
784.0,64.7945766919722,64.103663911406,65.25382812746187
785.0,65.72543842850935,63.929073493856926,64.28143747077836
786.0,65.40304368713122,63.63268824083789,62.628237357425036
787.0,65.26746285776251,63.823812358093285,60.81586696806069
788.0,65.30793116980594,64.09147191062625,59.773546802196094
789.0,64.82728262447739,64.42480104974135,59.20748229790814
790.0,64.86971878808303,64.77697372426798,58.614944112826706
791.0,66.06165159282874,64.94237199804809,58.432395855370764
792.0,67.57081242316913,65.46244278707107,58.89614024815765
793.0,68.88274896961447,66.37125711161491,60.02037916009618
794.0,70.49215444165803,66.99483656877182,61.619484058509435
795.0,72.91989541722245,67.57340851314682,62.65690934576653
796.0,74.9054475132109,68.41961409989439,62.77437550603962
797.0,75.1830497363935,69.88689216710868,62.70067440257361
798.0,74.05089014834641,71.73024556161859,62.343392305649886
799.0,72.5631414657075,73.80546084279077,62.09841568966603
800.0,71.55965475442787,74.7157090613765,62.259739385616086
801.0,71.42323631978388,73.25989852361364,62.95598538606772
802.0,71.95678531750113,71.24770116877374,64.16280476305916
803.0,72.82084912874652,70.31777587657882,65.17749680468467
804.0,73.88809878075531,69.9049951363404,65.86946874999731
805.0,74.73459862849157,69.07948480272704,66.42232148294318
806.0,74.83028812854667,67.68030241625982,67.13917612651359
807.0,74.64692379569594,66.27914909244257,68.6582938036375
808.0,74.48095884386372,65.1709996179767,70.44400840862889
809.0,74.06558936135126,64.36088507152505,71.65296457405759
810.0,73.14678912083797,63.66537040674625,72.20153380580217
811.0,71.98290621413628,63.222311920867895,72.96832990062249
812.0,71.22399804476146,63.16484741451322,74.18184393645072
813.0,71.04011567263682,63.38298564699235,74.6319819146129
814.0,70.49466731005037,63.7846076688645,73.55548971774917
815.0,69.77230131420438,64.59613717699114,71.94402793725372
816.0,69.77192836161039,66.03661458064792,71.89620994850468
817.0,70.27884140069267,67.66210998661953,73.83127731272944
818.0,71.23497142133405,68.99536841441687,75.98883302636874
819.0,72.44051987014248,69.93759047835667,77.10494211924531
820.0,73.16143137242332,70.64798837138723,77.25972203216817
821.0,72.7197407104042,70.48351958067344,76.54711885800728
822.0,71.62764834276157,68.7624660489518,75.77063142936758
823.0,71.0252627416859,66.12981968751177,75.47620309398344
824.0,70.74875251142348,64.01551628443802,75.0298050690495
825.0,69.95549194513575,63.06406593533787,74.3455664857526
826.0,68.34560992567383,62.9386485403619,73.95357087053371
827.0,66.29511379068991,62.89228418144171,73.7472901875684
828.0,64.7443908069443,62.75369970621543,73.52105062237271
829.0,64.39264391425912,63.33479169557327,74.1332578617511
830.0,64.83198885492308,64.61522514940899,75.04619880999716
831.0,65.47443300800312,65.35447955733703,74.37057299948904
832.0,66.40204097655062,65.14889854539406,72.51424497992545
833.0,67.45407814306627,64.70385577158025,70.34890929924713
834.0,68.17400558531848,64.30700623443893,68.22035764879512
835.0,68.76693401406494,64.18140046402631,66.59060508910972
836.0,69.50021914449394,64.6005919120064,65.4147512763258
837.0,70.07616502679019,64.804972273309,64.30553082914422
838.0,70.4395940956264,65.00657909151091,63.73024443932628
839.0,70.06361415477886,65.70760523240217,64.10552848305126
840.0,69.1824314703062,66.47146261710182,65.23735325980269
841.0,68.97015610930119,67.67818234711417,66.65505355979377
842.0,69.30318970570383,70.12976365711215,67.90539403897152
843.0,69.64901737522536,72.97222063604777,68.57262461639421
844.0,70.18925125999827,74.81592443692739,68.89938258982386
845.0,71.55070494747493,75.84899673910964,70.11470635543888
846.0,73.72467514846274,76.45947364244363,72.05226228107776
847.0,75.17961051108641,76.37298553343952,73.48834092663652
848.0,75.33468138331607,75.52241198140993,74.34850214607695
849.0,75.15477627066622,74.69546125733639,74.87603493439413
850.0,74.76341301491375,74.72329261045303,75.44260634999753
851.0,74.19629022861162,75.52488371455837,76.1154343093483
852.0,73.8833636217303,76.58175408934285,77.19442439185826
853.0,73.90454251035905,77.473240319821,78.46599299598573
854.0,73.88689550016528,78.47544460776513,78.90298408725216
855.0,73.52427492016791,79.64128698827683,78.59278140867109
856.0,72.44857655507158,80.15621727129046,78.13901344465752
857.0,70.42369464927566,79.79547896647567,77.59510626790308
858.0,68.14881224775601,79.27151186393506,77.14004254770569
859.0,65.74785872017138,78.02151341263344,76.29551693548018
860.0,63.633136016887455,76.00787890746285,74.86144433361488
861.0,62.69599703582614,74.31143982436875,73.57038300062148
862.0,62.01849357712577,73.08569758391157,72.04032175587923
863.0,60.813175985744856,72.40076303846052,70.15256513740597
864.0,59.87497585862755,72.58923377551555,68.69481128405725
865.0,59.55651880566531,73.24410051276732,67.85859524216919
866.0,59.40519797879711,73.955172096753,67.68482747448006
867.0,59.8300727718591,74.44094154289003,68.38477816956346
868.0,60.8586707860814,74.32098344286513,69.16300179200452
869.0,60.803875418963,73.21736507175041,68.99197349290844
870.0,59.568651958600164,71.55957996576609,68.35355631171842
871.0,58.840998816309195,70.18218311549434,67.9198017663873
872.0,58.830673808834554,69.0720190337375,67.72010411637316
873.0,58.460783533053394,67.49482989911802,67.36447298019415
874.0,57.79677543543224,65.4831049182857,66.78911629090041
875.0,57.74988852062918,63.8367901733463,65.86043819787434
876.0,58.153770044384636,62.95391138073663,64.82904384425818
877.0,58.26933331662753,62.22223838905861,63.85476634130913
878.0,58.474908610795026,61.474523342184796,62.68723822543829
879.0,59.74253412505364,61.93271830015745,61.89687328494796
880.0,62.22035479632465,63.5745171564444,61.97586568962007
881.0,65.39125985692236,64.9868963933388,62.61145382776997
882.0,68.33714615323474,65.05490641963681,63.06760328832801
883.0,70.6291750815112,64.57439940759214,63.29780629714792
884.0,72.04206012394873,64.5632757111061,64.1880130575091
885.0,72.39878313510967,64.5512750321958,65.79656058262786
886.0,71.90885670613734,64.52588208346212,67.09033748829526
887.0,71.25837773278255,65.01574525563096,67.9885567189556
888.0,71.6979107890525,66.2593595769738,69.1642428896839
889.0,72.9694307398256,67.9599285731506,69.64735105738019
890.0,73.52729801859513,69.0420715057723,68.09081767158193
891.0,72.98883366160388,69.21314050934382,65.6959630917038
892.0,72.01775733127745,68.53348036766913,63.66908535156004
893.0,71.15030707614115,67.44288586779815,61.911303827223975
894.0,70.73329992248304,66.5773661496138,60.427233272088884
895.0,70.74441915589006,65.6467017029302,59.658240394113655
896.0,71.09455456301525,64.85078431177308,59.82772162221254
897.0,71.9588535784928,64.79613436064481,60.60994735715075
898.0,72.99053796042163,65.40507929046642,61.63494461586581
899.0,73.48177721490372,66.19416955979501,62.78000631931075
900.0,73.58049059449087,66.52557718190411,64.09525137773707
901.0,73.53868259140638,66.9226590651395,65.38470750655428
902.0,72.88930178007224,67.47002668134249,66.27016877506759
903.0,72.0090439887857,67.41905095063578,67.76170284164645
904.0,71.16783969431408,66.79479466629613,69.83783926848764
905.0,70.37596302504788,66.0957065686834,70.78124544169577
906.0,69.94450666967137,65.5264030778695,71.08722807321372
907.0,69.8864215118709,64.85426450953756,71.78705794175015
908.0,69.66921902830508,64.21987736888595,72.0324398621468
909.0,69.17259601855518,64.14832817726172,71.12389045442008
910.0,68.6770646327159,64.99847092183192,69.55899664266703
911.0,68.01445480893634,66.18453276489498,68.5655953605063
912.0,67.12288570810922,66.95217234058455,68.8585615167641
913.0,66.14572730867425,67.08809153461866,69.21808655513554
914.0,65.19029835686676,66.61023593201304,68.63339484151561
915.0,64.5884970569524,66.03926375678722,67.94641806308982
916.0,64.58260547624081,65.59194065447507,68.00964192674788
917.0,64.85979596397345,65.13944125953266,68.61727514970539
918.0,65.14858521123321,64.6329839236995,68.998727695334
919.0,65.02692172864818,64.0675907327414,68.56163717432524
920.0,64.05376904173029,63.84574262071803,67.33735818979424
921.0,62.90964994173389,64.34250497650287,65.86137647496723
922.0,62.038389692573105,64.81555426085964,64.86526874994352
923.0,61.67403177830371,64.27588432556894,64.62139581589167
924.0,61.94620986594195,63.07047723139876,64.6303998941816
925.0,62.844855500733004,62.48142271185655,64.51716458794122
926.0,64.47874429718942,62.60796952272956,64.22842454984261
927.0,66.55881532866044,62.4368059987628,64.25792071760794
928.0,68.96489428356023,62.0744527979189,65.25519210469724
929.0,71.19508253734139,62.33843623652837,66.78016368060506
930.0,72.4523219718594,62.40630272991342,67.82075177875555
931.0,73.22629183117908,61.567045464455454,68.41361552935689
932.0,74.02599862923124,60.62435748922933,69.11771762543898
933.0,74.61425630792209,60.29081975031582,70.45585195569096
934.0,74.87450815745987,60.49570224939193,72.08673875106162
935.0,74.34459782297345,60.66819737480086,72.46228752312769
936.0,73.04015574854299,61.48171869778868,71.59650515855411
937.0,71.00448551545965,63.4709934453909,70.83562581132995
938.0,68.24831729052333,65.81552155294645,70.63563744525432
939.0,65.11491733424221,67.99360387899449,70.05135617668113
940.0,62.520729084118685,69.75205226278487,69.14308433369618
941.0,61.21260647088734,70.82611074821192,69.25154305717942
942.0,61.18458442086606,71.20328259410113,69.97295126847746
943.0,62.44876470953121,71.2439256769092,69.99396543049778
944.0,64.69823427056578,71.3156318472069,69.42610267983035
945.0,67.11447869757922,71.44424263467012,68.89662176469201
946.0,69.01592586264618,71.60421304261912,68.7748101283096
947.0,70.23379481630825,71.85096285769185,68.77842745822741
948.0,70.42455529017222,71.14193961679634,68.2853737649751
949.0,69.22760140493526,69.02161061687553,67.52494660594532
950.0,67.2503876079959,66.58922742716794,67.02700274725846
951.0,65.38930878507293,64.81444017560037,66.92620686944389
952.0,64.35911765466058,64.25076274400246,67.59044281909917
953.0,64.20303016080857,64.07105843865862,68.54673301941655
954.0,64.12146772291317,63.21764613738484,69.08100247757383
955.0,63.62447557261856,62.00911182956542,69.30351809424604
956.0,62.795976357065996,60.9241879094685,69.28085841551199
957.0,62.43696503709444,60.55009589206675,69.11692225756656
958.0,62.9305519325809,61.070296456803,68.78593951862574
959.0,63.29886603662581,61.15157792256566,67.76273167686176
960.0,62.9800774840629,60.614206925237,66.19738511991474
961.0,62.071299428495315,60.77625790458455,65.0622706776399
962.0,60.84303985022316,61.71544550379664,64.69845078186867
963.0,59.63444580309114,62.706273178387484,64.71635835451498
964.0,58.442168686028374,63.1822463222615,65.08151727467792
965.0,57.50009608717897,63.58775062063876,65.82788306287048
966.0,57.11845756973722,64.19466264732748,66.4297326407881
967.0,57.49085026917929,64.63221648607946,67.00620026751996
968.0,58.52958795324042,65.21175983682039,68.157340726398
969.0,60.247820791118315,66.31154126444349,70.07691419943139
970.0,62.69203532895118,66.92272519146773,71.8286820174685
971.0,64.95432526846736,66.69581687632449,72.60883148896575
972.0,66.12331287158739,66.77126528811803,72.63898523644922
973.0,66.05971298804684,67.27923475362795,72.14370714079655
974.0,65.05716680102202,67.64065272267666,71.83063524482944
975.0,63.288376213084234,67.57926233883515,71.83071010182958
976.0,61.51616605822818,67.53041013142607,71.67050607209549
977.0,60.485107683276524,67.85870451383877,71.61451810325377
978.0,60.152369358882346,68.75986688705596,71.91550160667362
979.0,60.20355434413145,70.00053210495413,72.28380401851969
980.0,60.16324712068737,71.10422800524614,72.51243457661104
981.0,59.942444207530954,71.69133037450436,72.68443103711377
982.0,60.110544849881464,71.75475873025282,72.96696875382283
983.0,60.738693684103374,71.73264050705103,73.16200679432214
984.0,61.37233744416591,71.9158471765931,73.05789415773695
985.0,61.962831753369265,73.10403162163249,72.79202664544957
986.0,62.46937520614829,74.91937322207326,71.84990196868036
987.0,63.36201976737858,76.55526463084661,70.39148593865251
988.0,65.1203475474741,77.44121683448752,68.72654098288172
989.0,67.07017239919728,76.70169018421686,66.59521643857964
990.0,68.44943271101415,74.97730093151583,64.08048532032716
991.0,69.4340389975696,73.12423461396637,61.55623485975841
992.0,70.3668140843185,71.53056874086023,59.347641587335964
993.0,71.26818427712095,70.65073021668094,57.893740772494446
994.0,71.76001942119318,69.96132657240302,57.32924050919145
995.0,71.93993647000961,68.4485401122582,57.60339250402428
996.0,72.51412159646183,66.40473247968916,59.23995150896893
997.0,72.80130175182772,64.63596241128414,61.430980932109506
998.0,71.85261431404703,62.66663557253261,62.25756405944671
999.0,70.01523055276377,60.344076369636426,62.08108809844077
1000.0,68.22344429828786,58.84749705302461,62.12603752540313
1001.0,66.57520145069886,58.650840402590006,62.34766950359832
1002.0,64.80951429866822,58.60658285110984,62.511085897615835
1003.0,63.616254798690065,58.39472561419411,63.00856631653081
1004.0,63.06449378962243,59.027128749980655,63.94284584065379
1005.0,62.55629046558904,60.457350711203105,64.85726496770758
1006.0,62.11002188507034,61.93911962903381,66.00574179562548
1007.0,61.57139936688589,63.00661357626502,67.4710089712079
1008.0,60.551072448245804,63.858935800678516,67.89038870462632
1009.0,59.27708004044231,64.72703149804464,66.55803172569311
1010.0,58.610503180093865,65.41191012685994,64.24970759727691
1011.0,59.139999508861905,65.65534638883287,61.71470446868551
1012.0,60.807974386753735,65.27329300729868,59.67124807290922
1013.0,62.827056600970835,64.58844385681421,58.908427196037586
1014.0,64.01059040709724,63.89307058832523,59.38879085352285
1015.0,64.53012472902579,63.16054177794321,60.59559470352428
1016.0,65.14048141731186,62.43154740093967,62.167547358855884
1017.0,65.60875936247159,62.156914064898004,63.86343486370475
1018.0,65.60916826540124,62.797026158402666,65.68690076144445
1019.0,65.19989377100323,63.50790786384881,66.70512765440823
1020.0,64.8819830224181,63.46375245125233,66.68018332562515
1021.0,65.44357637763525,63.07370739189036,66.67629800793286
1022.0,67.01748517662203,62.824396860654375,66.9714616459135
1023.0,68.42858585139754,62.78987310915786,67.30831667694311
1024.0,68.56838573153019,62.54861066287466,66.85524688131446
1025.0,68.18586397394063,62.023776814011356,65.3484495555589
1026.0,68.30928189227264,61.31035361561059,63.74815062572575
1027.0,69.36217931998026,60.134012598827134,62.68224584511701
1028.0,71.11577087746136,58.646395977458646,61.57540635402695
1029.0,73.11481411744276,57.249582654657694,60.41525226820861
1030.0,75.04242866079584,56.357869031892484,59.641376307523814
1031.0,75.68377994477844,56.352960457760766,59.350534217022734
1032.0,74.36144903323401,57.266272195631494,59.88368421072975
1033.0,72.43239376196557,58.65804831094273,61.052422572269705
1034.0,71.25509168540387,60.163381612681924,62.00293546251902
1035.0,71.02408666898012,62.06989608732256,63.12594694337261
1036.0,71.63559566144811,64.9223553979476,65.4426308634584
1037.0,72.1914859861594,67.72387333602327,68.02624524107233
1038.0,72.05914641228627,69.10851562362566,69.59252003683609
1039.0,71.57698366555346,69.5604840786423,70.06213705245473
1040.0,71.25433856501108,69.83008752417666,70.67660245844516
1041.0,70.7985805697555,69.63458685257974,72.4592400385678
1042.0,69.75094091845835,69.01074194426542,74.46799920972907
1043.0,68.47511635933853,68.1439263736776,75.88936480909612
1044.0,67.25404089105093,67.0093411482194,76.36367047296707
1045.0,66.4360349251257,65.99211832345316,76.35633469056854
1046.0,66.09103457483653,65.36184640967512,76.48287044195229
1047.0,65.82618115941075,65.14462727810925,76.96810108689596
1048.0,64.97954278466038,64.6315705958058,77.66037195069016
1049.0,63.41166502622509,63.08847084374756,77.67538256949679
1050.0,62.18067054970595,61.509624705216766,76.90545918549745
1051.0,61.781084502197515,61.07518843957965,75.97381175964178
1052.0,61.517516987621626,61.555075248406744,75.24131578783383
1053.0,60.93412380669963,62.178403494513155,75.0906416934697
1054.0,60.24107582616578,62.263396539057865,75.67583053312646
1055.0,59.88192277593194,61.720770586847074,76.95970069075611
1056.0,59.95371317566234,60.50917126752505,78.2989697216332
1057.0,59.70635243979558,58.94326480759111,78.28074201039998
1058.0,59.34090025471944,58.22715984998066,77.02462631664274
1059.0,59.57330460833261,58.78901998297417,75.43765969069155
1060.0,60.49286879720969,60.17660492637306,73.80269947565009
1061.0,61.810917159538526,62.078100710337765,72.28934951602923
1062.0,63.171426755597295,64.51560365675529,71.49454859225496
1063.0,64.32409305260565,66.93372173801967,71.0254832176668
1064.0,65.36281991961967,68.46684347268777,70.09376565398496
1065.0,66.35752934172187,69.21100207505732,69.68807876701901
1066.0,66.46169303322188,69.81536065852528,70.25037933741606
1067.0,65.78068117156411,70.35241082385545,70.78393134319651
1068.0,65.4883508850375,70.03818926379118,70.98437946712285
1069.0,65.85797989484713,69.26589135663603,71.11941743728929
1070.0,66.5543808066591,68.74984329349031,70.75763525155485
1071.0,66.69264396214305,67.93640085342766,69.89609834750907
1072.0,66.04639500100579,66.40274903605552,69.2329696080494
1073.0,65.34732549874222,65.04475952273647,68.76778823393603
1074.0,64.80960803595066,64.29555390314144,68.27993974095983
1075.0,63.95910384773981,63.71612520653888,67.46015238080585
1076.0,62.40589129934779,63.24069728423367,65.909740664547
1077.0,60.77371291661904,63.31038642374959,64.51611424409774
1078.0,60.15163880577374,64.08829339193318,64.158780109316
1079.0,60.752957793710195,65.5620275429368,64.65566932284786
1080.0,61.65419698401364,67.23276591023846,65.66740797195592
1081.0,62.09715429931254,68.80876840556252,66.76804716857791
1082.0,62.43950032819882,70.12425273518838,67.75981544885295
1083.0,62.92874548768151,71.03201357016705,68.98077405172842
1084.0,63.225898616617684,71.85178784842833,70.33377673289485
1085.0,63.43453619885497,72.81325759729205,71.66798672305151
1086.0,63.159732211185954,73.83994732078688,72.72390828120406
1087.0,62.23585980542704,74.76125901764493,73.19547322822172
1088.0,61.88529054113815,75.41428307480571,73.4960617859757
1089.0,62.56516995859753,75.78198947736377,73.36783831084097
1090.0,63.91357960363279,75.8639678250346,72.32443141437822
1091.0,65.11845690807554,75.556850138716,70.91071850636203
1092.0,65.41361443425555,74.34908049224065,69.20786244273674
1093.0,65.26364078402821,72.662156525341,67.72008966744706
1094.0,65.13080727895655,70.91916618992424,66.74161650039082
1095.0,65.03154136942042,68.87871155020416,65.58548134607425
1096.0,64.96346334780233,67.2281695971812,64.63548579600624
1097.0,64.82733378916151,66.58255135720343,64.58431566612741
1098.0,64.76647935658472,66.67741251879956,65.7172146417623
1099.0,64.79919243378959,66.28114760711865,66.96923318509108
1100.0,64.48099435820089,65.1758533172409,67.40917234472278
1101.0,63.89732721500075,65.02153277479984,67.59383395827976
1102.0,63.567614236848016,65.7939329404626,67.60675562970965
1103.0,63.496863131527334,66.36923992191451,67.10604826797156
1104.0,63.9239000197959,66.98676634874383,66.30339797265208
1105.0,64.69720880586868,67.82928612101391,65.39091074494286
1106.0,65.05464265899299,68.72711562715085,64.2862674826728
1107.0,65.00096522157375,69.32702782021016,63.031794105182435
1108.0,64.6244662583911,69.27937576466474,62.40110054637288
1109.0,64.00344355996002,68.48328147490916,62.37833743656574
1110.0,63.514562218843686,67.32389656012606,62.12220853705097
1111.0,63.30116709671042,66.49352543631825,61.80515700405473
1112.0,63.103072625381785,65.59964026188919,61.718583955833594
1113.0,62.93349849676038,64.18941331640032,61.83634981797687
1114.0,62.9138495880578,62.9811853112079,61.81218365661544
1115.0,63.45241387820987,62.89337664060326,61.47167018824793
1116.0,64.52398926996918,63.22105809870151,60.4476171257717
1117.0,65.21589726500792,62.764299674519044,58.65460262262539
1118.0,65.41858185101246,61.996034012709075,57.49910958407521
1119.0,65.81231985493818,61.33746791975006,57.92883555668666
1120.0,66.28647388359734,60.76989663164586,59.27011459244433
1121.0,66.41695549901976,60.88100957119034,60.443478415326055
1122.0,66.64227387314172,61.84275902451475,61.08838678774244
1123.0,67.40897880764042,62.795390262058646,61.63506401400339
1124.0,68.56958905952098,62.897953767548806,62.05455399133294
1125.0,69.24446291323399,62.32151189984165,62.360147543382396
1126.0,68.82169180202666,61.623133344308314,62.80479434469992
1127.0,67.85682735814444,60.49024131582537,62.85274634162863
1128.0,67.0839740715789,58.73100828439384,62.43990978061413
1129.0,66.75101983945258,57.33291954732636,62.210930125542376
1130.0,66.36060634902225,56.99721914977052,62.09457182114182
1131.0,65.73471945094401,57.20527635256568,61.77826586397116
1132.0,65.44731959229918,57.46669074237941,61.13335310802815
1133.0,65.18023446694792,58.10325023758639,59.734431425232245
1134.0,64.67184122396365,58.891544631056526,58.00627513305348
1135.0,64.70381877261295,58.9307348924417,57.020665564335324
1136.0,65.6616229476928,58.57902690750695,57.25250476417676
1137.0,66.85042289181763,58.46224640275904,58.27670997757997
1138.0,67.48978611134629,58.571810459044976,59.339175015352524
1139.0,67.86050580218742,59.26224672816807,60.410867751277905
1140.0,68.43664345044242,60.13440553146621,61.48042898828656
1141.0,68.61928726112042,60.121265349418216,62.39861577218271
1142.0,68.41937324557463,59.83063677235158,63.08357300854144
1143.0,67.85137928583981,59.894961152728236,63.31206164196199
1144.0,67.07442761179428,60.15639298854062,63.369621993763076
1145.0,66.9482663378608,60.32478942201028,63.44130146769721
1146.0,67.0050459402345,60.11427179271931,63.171565326146016
1147.0,67.04845324994344,60.180241082416096,62.756594462255315
1148.0,67.78740483329605,60.73116412592505,62.63607635968459
1149.0,68.19198889361502,60.90306108506593,62.7734497036258
1150.0,66.80003464817489,60.7871580712175,62.87975122907054
1151.0,64.86112282829745,61.26516964628504,63.35290620770658
1152.0,63.73300053761229,61.98138702360393,64.20318499555205
1153.0,63.40603265939368,62.579060586535874,64.89268807518064
1154.0,63.905295468931,63.412714774879326,65.66106683629786
1155.0,64.38621555973624,64.36912447386055,66.90968312309705
1156.0,64.53088163316093,65.60951179193422,68.59879317994658
1157.0,64.63346304546845,66.65293727901752,70.21048337792074
1158.0,64.2918651429037,67.62629266792648,70.92454906591684
1159.0,64.23043402239686,68.63093182441064,71.57911884825118
1160.0,64.67461389644357,68.13407075889559,72.4988982747724
1161.0,64.93894643736938,66.1096063021308,72.77541251538372
1162.0,65.26343955684354,63.52428498798372,72.84478748494509
1163.0,66.46306318144639,61.41905997195568,73.49386451791571
1164.0,68.17927537426456,60.528847405182375,74.58913701014579
1165.0,69.18483838371233,60.01514755228251,75.55006270463456
1166.0,69.15225786029679,59.51084892546196,76.22545211566121
1167.0,68.4992092710313,59.36241248625773,76.61927525096496
1168.0,67.71990260596327,59.56285275888732,76.74651359114411
1169.0,66.98139554302736,59.83452798606842,76.33887285386592
1170.0,66.300315275507,60.01825485949215,75.62771407444717
1171.0,65.89867664103161,60.207685708184336,75.24768175606677
1172.0,65.70733462461568,60.28835772695955,74.81390732798425
1173.0,65.29422929680945,60.41028859697113,74.19579563374457
1174.0,64.15475455335576,60.58025991228572,73.7996080005105
1175.0,62.86103447596204,60.21060074872935,73.2928189951333
1176.0,62.32181365035524,59.789679572235116,72.69464112051048
1177.0,62.51482500051689,60.20253320318443,72.57321787759206
1178.0,62.71448997879728,61.01298951198836,72.4261312628281
1179.0,62.265222571852476,61.50044579385117,71.23674520143581
1180.0,61.70231045979303,62.36669850297106,69.46382267226342
1181.0,61.657522480163415,63.777698936159645,67.7443534441453
1182.0,62.03809688168031,64.91910208100511,65.5537481980711
1183.0,62.81648269996955,65.39381031891166,63.509911629198356
1184.0,64.13070934871186,65.37062050528499,62.83282922113583
1185.0,66.18210015047075,64.99822383073995,62.88329583950525
1186.0,68.16693206965367,64.05351613023444,62.61347791284455
1187.0,68.86288413445034,63.139690924786365,61.80442165030543
1188.0,68.64681000825942,62.9125035988964,61.08376308012248
1189.0,68.46455407724841,62.60094974875594,60.822448080039834
1190.0,68.59492751727167,61.356901458702986,60.94995440725692
1191.0,68.98836090403942,60.08780590288548,61.4846144490363
1192.0,69.10948620243028,59.45666243354393,62.07736455792414
1193.0,68.87246906785694,59.28323396559476,62.7428490576726
1194.0,69.08084419883401,59.80950765667457,63.76340315052395
1195.0,69.9677807088941,61.034431837455365,65.16480831577002
1196.0,71.03952009885867,62.19444185794421,66.58587314643782
1197.0,71.29992376014258,62.874404110785974,66.91095153077494
1198.0,70.7103780593245,63.00520299590295,65.65585152915858
1199.0,70.13888360133124,62.66196748901926,63.79070640469353
1200.0,69.73731530111002,62.49389008275928,62.16269013929901
1201.0,69.34361917835453,62.56884097490329,60.92317945940012
1202.0,69.02302544624146,62.16566892123511,59.97225242058116
1203.0,68.51006861240303,61.074367578155886,59.05492569438886
1204.0,67.9561721324741,59.968625656389264,58.020551057091616
1205.0,67.62292624643543,59.769949672733695,57.110555677006694
1206.0,67.06804057590138,60.25480912972307,56.20610998768337
1207.0,66.43031062614746,60.708746680387286,55.20030511202646
1208.0,65.98097832360119,61.26248123605096,54.41178191999195
1209.0,65.31465056120173,62.00162032607601,53.96885623036459
1210.0,64.31847628568595,62.819986498989905,54.066121204629724
1211.0,63.46380050874052,63.32516160300937,54.81303047064543
1212.0,62.952636657124884,63.330882146623615,55.88732379666509
1213.0,62.89315317666232,63.63692886945337,56.530496834792224
1214.0,63.21162842785301,64.37918412029802,56.68793709629382
1215.0,63.19153125054175,64.88909890550417,56.68760353518618
1216.0,62.613830075106385,65.60146952172613,56.66226585129836
1217.0,61.31165573258578,67.0150162316274,56.796589376154316
1218.0,59.66141566809614,68.55082143931499,56.921256032084315
1219.0,58.700678937732064,69.50843226037195,56.64280786598142
1220.0,58.10322151480089,69.83731249552416,56.1590075196932
1221.0,57.34909444800963,69.78971797040796,56.05056633789619
1222.0,56.30476442573079,69.19911745490475,56.3536248753041
1223.0,54.84769549042623,68.2402978464831,56.78345061942183
1224.0,53.614027973513025,67.6495759842211,57.284107705220386
1225.0,53.124897217191354,67.95565099685491,57.91465180542484
1226.0,53.26618283597062,69.1060320003208,58.508908212691644
1227.0,53.67033095316298,70.67547402130498,58.33270649498296
1228.0,54.047501778781864,71.89223137884501,57.03956695099179
1229.0,54.663249926657855,72.35054795421351,55.862245765572965
1230.0,55.747743981348506,72.33680353982339,56.13767612415138
1231.0,57.299984357658644,72.07660887229393,57.187430940492206
1232.0,59.06744627504464,71.87954641061197,57.741102471187006
1233.0,60.2912470269741,71.00555243823402,58.17347522788768
1234.0,60.49407469667368,68.54945548558456,58.49799419370022
1235.0,60.5024397350302,66.18505969991699,58.449643513752996
1236.0,60.84424990463522,65.44428820316335,58.55497701764013
1237.0,61.3104428409462,65.4743800992391,58.784980273333765
1238.0,62.27592075380496,65.16842638424414,58.84619191349253
1239.0,63.720892043054754,64.45331701565287,59.17900963508702
1240.0,65.20241348141202,63.824638171832795,60.38544504374555
1241.0,66.228420043993,63.62178420556683,62.08955270263585
1242.0,66.51426134714262,63.8837849006933,63.39469342819228
1243.0,66.33150855134048,64.88681619840246,64.31840153835938
1244.0,66.01894737615906,66.09830327439853,65.43594758799607
1245.0,65.80865068935972,66.40907652529228,66.83473472910731
1246.0,65.41201601862613,66.35292963523949,67.91023477879199
1247.0,64.62524240802577,66.68898112119567,67.86395206321964
1248.0,63.66312542518307,66.66716932562012,66.15344841795674
1249.0,62.877982183728115,66.21611152702721,63.36843255930784
1250.0,62.657974671842624,66.19685290014918,60.76975574319829
1251.0,62.96503709142104,66.40150137463932,59.45667307334526
1252.0,63.68078670125181,66.65438327827313,59.535465944871525
1253.0,64.323431745209,67.43363131841748,59.96683965114566
1254.0,64.28217011002627,68.29509882458858,60.158673203723204
1255.0,64.22066086133962,68.35423212059636,60.33553260544379
1256.0,64.49813304391485,67.3618002656612,60.648097224138965
1257.0,65.0190977345025,66.41033984484581,61.41589763977383
1258.0,65.56155010266342,65.91346665456241,62.91110454190766
1259.0,65.39271872986816,64.74035534740004,63.76051370987977
1260.0,64.78908491149764,63.19011463787287,63.695999210375746
1261.0,64.3426060201569,62.45234337331452,63.78961827569976
1262.0,63.93689938784427,62.450602742345964,63.76227832595514
1263.0,64.04946153037211,62.687035885094126,63.36731111094172
1264.0,64.12843487953216,62.991565053236464,62.75314346433639
1265.0,63.45370348159319,62.89083064529405,61.98841169943427
1266.0,62.818811427493806,62.543868464816995,61.13144277804334
1267.0,62.96951074087672,62.90044977716994,59.97983220136566
1268.0,63.9160964240109,63.44802187490722,58.881568945346274
1269.0,65.1815232145285,63.649573991462724,58.19687189493546
1270.0,66.554100461427,63.93656280426872,57.57988994232897
1271.0,68.16135919909088,64.07116366411229,57.19300970278273
1272.0,69.62696873524126,63.52190778692577,57.584609476477596
1273.0,70.37375816717122,63.16692425043475,59.113196985154964
1274.0,69.92352197846196,63.820465261728465,61.70521209403679
1275.0,68.49190885876132,64.88799943993959,64.66841844991407
1276.0,66.83061634803529,65.41556689967787,66.83788102068432
1277.0,65.15416619157372,65.25261848702114,67.70300348852446
1278.0,63.202460288829165,64.7586422920069,67.7348586493177
1279.0,61.35465464749494,64.23578728058314,67.60800853228645
1280.0,60.304597282678294,64.12029054602854,68.35211073216537
1281.0,60.093548174206504,64.54897763549108,69.8351258561191
1282.0,60.64225539186164,65.5960137930796,71.03830700240647
1283.0,61.59398960722831,67.17704509873667,72.06890829841635
1284.0,62.78763585159682,68.95581666902507,73.29063872690404
1285.0,63.77426773921078,69.96748328969575,74.40069829787033
1286.0,63.94185074581568,69.95283015820539,74.89381325440131
1287.0,63.277719437756595,69.98370005581499,74.27232031792725
1288.0,62.56053011458194,69.38293720202644,72.23018016997429
1289.0,62.86962682904668,68.05613854409032,70.04554968843314
1290.0,63.72990509396369,66.79229544537444,68.60107079010606
1291.0,64.47319472306692,65.37843481161934,68.26619628986931
1292.0,65.05235523106161,64.47964161565731,68.7930697104542
1293.0,65.2914831915775,64.45759166836172,68.71574525773597
1294.0,65.26364750019181,64.12573086482267,67.25584931917554
1295.0,65.05824330261832,63.16613707272326,65.042835111705
1296.0,64.34441891104359,62.25039529481945,63.42149159256637
1297.0,63.06292288483134,61.92607153196161,63.10184907558059
1298.0,62.08356346880611,62.31866447202247,63.38033579104435
1299.0,61.67671606051923,62.81862644330092,63.6472168800823
1300.0,61.209367739702145,62.90506103738777,63.40217962994354
1301.0,60.621868950025835,62.997608166609396,62.670627121487286
1302.0,60.02702581005558,62.85627211170352,61.65521930836637
1303.0,59.27912651136272,61.479317597069276,60.14660521894257
1304.0,58.20163162149976,59.27718095663039,59.208035017468376
1305.0,57.45408452897058,57.697019332443915,59.405830285228234
1306.0,57.94223733000306,56.98701322112161,60.53444207650484
1307.0,59.43021076322147,56.92671748109315,62.323550186949106
1308.0,61.05671422355296,57.92335859172307,64.50627977536155
1309.0,62.51200080062204,59.619422343225516,66.94098445934966
1310.0,64.3403470136351,61.19332010030767,69.1314947918014
1311.0,66.11905212440432,62.12486646260606,70.2889658690609
1312.0,67.1069791529597,62.78366597643026,70.06939412522613
1313.0,68.05647995750323,63.871081224845604,69.25878434421938
1314.0,69.42792281940108,65.50655900315485,69.0100064726118
1315.0,70.30447021571575,67.12524227798036,69.01825788449979
1316.0,70.53391308202558,68.52041516205512,67.79093469551862
1317.0,71.02806538998226,69.57313972883117,65.94231141718137
1318.0,71.7242245597171,69.81423719644224,65.03243607217938
1319.0,72.04208976927039,69.16231470122132,64.90600237871561
1320.0,72.01793497500398,68.02532027095005,64.55499606351344
1321.0,72.24770220192865,67.2481693719642,63.92449497815531
1322.0,72.88364921377983,67.3841423265354,63.720950144996806
1323.0,73.47087608113584,67.91395378752253,64.74726910129857
1324.0,73.54541565221419,67.93701370071173,66.51087993116305
1325.0,73.32138574835255,68.3696078569134,68.3836102670233
1326.0,72.84660057903825,69.50884666928185,70.5122762886736
1327.0,71.95498888724448,69.96075313925591,72.47170482117
1328.0,71.17431490509324,69.6763491926408,74.27261751947232
1329.0,71.14863698077185,69.55837787992971,75.76328564120608
1330.0,71.6702821073422,69.96812106527541,76.18194795603233
1331.0,72.09761483801348,70.75496241329417,75.25208293227166
1332.0,71.50325811352246,71.2838302455998,73.14475238573367
1333.0,69.49811106129067,71.10613319732832,69.87781117141778
1334.0,67.27096503528321,70.87191182882081,66.32246597119835
1335.0,65.7570829105616,70.93543802153194,63.901259620492944
1336.0,64.77542203161208,70.41349748389665,62.54415992638132
1337.0,63.775779168370576,68.84315481864584,61.47175085597926
1338.0,62.77999736448238,67.21699193323414,61.064897987141116
1339.0,61.904144041790346,65.858179437946,61.44562914684652
1340.0,60.99327809850445,64.32401048624097,61.5385747842485
1341.0,60.713394111401136,62.45618210132712,60.92257880589472
1342.0,61.18433752787269,60.35193478456523,59.97858478598968
1343.0,61.638494484661834,58.21733490451502,59.12151949665517
1344.0,61.76536411267363,56.466225593733185,58.18249032262435
1345.0,61.7802929123596,55.512185847126645,57.11095625217165
1346.0,61.62203169244156,55.346273883392215,56.396811838360826
1347.0,61.26282858100746,55.792683625672844,56.46168778305053
1348.0,61.410359745560584,56.60332242712724,57.23900906911974
1349.0,62.01679528585057,57.682132074452,58.22073922765344
1350.0,62.50814376922964,59.50973860061636,59.26141594508893
1351.0,62.82558241420924,61.72595405645003,60.46503212922793
1352.0,62.273924601941395,62.87983110879932,61.450183170864214
1353.0,60.816640200166674,63.255449433166085,62.30010215660913
1354.0,59.84758534998795,64.24448203417936,63.46201980902002
1355.0,60.51484951529716,65.69061248884915,65.21241100766859
1356.0,62.68143911891882,66.30539523662517,67.77394220486988
1357.0,65.28187672990009,66.15540630558563,70.68228293571818
1358.0,67.37108550544806,65.40635950744422,72.83365851626144
1359.0,68.60736147152953,64.24373820090477,73.77547046392948
1360.0,69.31777791685339,63.89844907656394,73.95021838516453
1361.0,69.60534664344753,64.04928847787768,73.07933947129834
1362.0,69.62032275942623,63.762098108644864,71.31905101032028
1363.0,70.02994879176143,63.5616582966276,69.19411147003862
1364.0,70.57428642839837,63.930887680237745,66.68572770342308
1365.0,70.70581745455512,64.02760135659403,64.47719818092834
1366.0,71.19658536123728,63.47372518550473,63.08927045139889
1367.0,72.48024361762235,63.49203117539393,62.44935580843656
1368.0,73.6108906173758,64.2249673773401,62.879694332904336
1369.0,73.73450968317786,64.75433640985135,63.67803047386337
1370.0,73.18388275719354,64.9330415315341,63.64236929862833
1371.0,72.49284688285101,64.72581025897556,63.08114054016506
1372.0,71.42286091422557,64.21367343679987,62.1934817307716
1373.0,69.79559584422664,64.02699156432044,60.53995807263594
1374.0,67.99994611956956,64.40203829480505,58.65448479451273
1375.0,66.65766584923105,64.7055049763806,56.78014740148286
1376.0,65.91413422147888,64.95915081176358,54.67470825667669
1377.0,65.11647697245687,65.43194694625208,52.83889413126193
1378.0,64.18279730138958,65.41347372819689,52.0197788769161
1379.0,64.1590979816032,64.9376780013629,52.37205631403429
1380.0,65.65902573625337,64.46000529404103,53.23487582625101
1381.0,68.14332595926057,63.500766562300164,53.51876810054663
1382.0,70.04301309903933,62.59796257035109,53.25256737278639
1383.0,70.49243739685141,62.522473090099275,53.676485854314926
1384.0,70.16675356629753,62.75245849791124,55.040031525551505
1385.0,69.43180419159313,62.769690072532505,56.70093535491685
1386.0,68.21625501857469,62.38621909675134,58.58459495719879
1387.0,67.0080792430292,61.47901655137779,60.16260893449198
1388.0,66.94562031981043,60.80589512220955,61.174060996915166
1389.0,67.39584471069408,60.9354366949823,61.84347667420047
1390.0,66.9030115998529,61.3059982798184,62.049358085250944
1391.0,66.12823846894409,61.63551794195852,62.05477206052657
1392.0,65.23470336269757,61.408724832414336,61.586036876176266
1393.0,63.89808798520428,60.91326734694518,60.810396193163236
1394.0,63.11332383607885,60.98077156089302,60.47900194979016
1395.0,63.278730819007734,61.33014359951187,60.30765833635597
1396.0,64.10856311397913,61.853332208648624,59.82779094381719
1397.0,65.43556015845444,62.93350655899899,59.17127089015514
1398.0,66.44279893456657,63.97711378125432,58.761717731751766
1399.0,66.16068115223207,64.18772672333077,58.57620138347063
1400.0,64.85730535280524,63.73081139558072,58.72040955924447
1401.0,63.57777637380213,63.529431216536636,59.4672237115644
1402.0,63.01702357978675,64.5099886187505,60.59413205277894
1403.0,62.92078671095436,66.54426994838192,62.01249403445724
1404.0,62.4083217505836,68.5404298668093,63.81777606392835
1405.0,61.58254015687995,69.77076363268851,65.57823310904637
1406.0,60.96458667718554,71.06689475100102,66.95271436118745
1407.0,60.67019762405899,72.82673631907636,67.78979893441196
1408.0,60.635895297058426,73.60333756284297,67.74038462674055
1409.0,61.24983060415015,73.10109163550432,66.98221577051487
1410.0,62.728675865877264,72.37747417790567,65.99461925209717
1411.0,64.02274075185169,71.86330096241974,64.93788756012721
1412.0,64.65388752135092,71.27198546213982,63.83867796781663
1413.0,65.10269726954732,70.29664091379051,62.62609112553376
1414.0,65.3131642539324,68.9207441378034,61.72236020195336
1415.0,65.37140296287801,67.554654890609,61.90567449563859
1416.0,66.20734233113075,67.55172759442662,62.983416994860725
1417.0,67.68860704882769,69.05760216003831,64.31215436835697
1418.0,69.20753944045939,70.6940190689357,65.62900543329022
1419.0,70.85172539661023,71.55782110637604,66.95360104648796
1420.0,72.55267151468027,71.49199898058116,68.28840762591436
1421.0,73.76030966655634,70.33071082932395,69.06389115473573
1422.0,73.92410048421624,68.2063713777016,68.93058451914212
1423.0,73.21620862749181,66.04991244090405,68.31827589327055
1424.0,72.60573327934968,64.56180193620649,67.99569885177361
1425.0,72.22490205160744,64.10678866861822,67.76413975953093
1426.0,70.9801133945089,64.49835464680379,66.82554890682675
1427.0,68.97158273960562,64.80806038892383,65.97663852333777
1428.0,67.86360320482888,64.6394636262909,65.8289534697832
1429.0,68.50086929533511,64.32761442958501,65.69169530658064
1430.0,69.81631813442446,63.967350193750256,65.33776489271207
1431.0,70.40494106107418,63.18038913225189,65.14806641136107
1432.0,70.37829450815006,62.238606722699885,65.15656664683307
1433.0,69.92539252868433,62.000622017732034,64.68059650732324
1434.0,69.26380047736069,62.80718348482213,64.26987533297769
1435.0,68.83569149634326,64.02314454606609,65.36848125000945
1436.0,68.88631563951742,65.4885629781414,67.1865704718198
1437.0,69.43339700320946,67.38163128611183,68.3701433679235
1438.0,69.85361104031308,69.09219105734849,68.8139926643602
1439.0,69.89861205747894,70.43738589197778,68.54424401666788
1440.0,69.9560269412387,71.25300459493886,67.50228926932672
1441.0,70.08698849601342,71.62435423562819,66.35322735641827
1442.0,70.46202313005895,72.33866478489833,66.07282812669881
1443.0,71.15945543076437,73.41244214834254,66.44816133671253
1444.0,72.0387625187068,74.34093376659287,67.10526638566996
1445.0,73.07028486432446,75.20140761611664,68.22973912867235
1446.0,73.84195656455287,76.26366022447728,69.18734880099993
1447.0,73.19913664269593,77.1725147117639,70.06381392227644
1448.0,70.89165294725001,77.10406179326515,71.2535788332502
1449.0,68.38071921232012,76.41950520431695,71.61996596398548
1450.0,66.90709070056019,76.44560098526233,71.1204529373387
1451.0,65.77820248581055,76.90961572750336,70.20242560978757
1452.0,64.23220903136983,76.7826472060727,68.86421209876467
1453.0,62.92009829720819,76.3704273808915,67.80087249373845
1454.0,62.4612799045508,76.2420492344003,67.18772960689522
1455.0,62.59001646560575,76.34110007025451,66.60136756038067
1456.0,62.70326235086469,76.68943297922436,65.79877046794483
1457.0,62.60263534871671,76.87178047779,64.63769599196152
1458.0,62.91362387397818,76.42062293031563,63.133973451651734
1459.0,64.11422806652354,75.0878478693382,61.77455711664678
1460.0,65.82680888673768,72.66675070076846,61.10124962525443
1461.0,67.28646139406108,69.59329852985776,61.28528940834188
1462.0,68.36165488205519,66.85625651600733,62.15646365335923
1463.0,69.06869864401021,64.5204295066753,62.9279749951798
1464.0,68.75007329403519,62.06235248746842,62.257342365818516
1465.0,67.8924982952912,59.935657308387945,60.52089063097217
1466.0,67.06879820986816,58.63411746236277,58.63922091903385
1467.0,65.80573489305357,57.66588728926315,56.37521680850489
1468.0,64.11505978524401,56.44367631845636,54.684539913290074
1469.0,62.7111438359452,55.40678090648129,54.53561072123173
1470.0,61.31971930688965,55.20817110677811,54.988638950376846
1471.0,59.43520521776454,55.92571202006783,55.16975505142089
1472.0,57.961563996397615,57.663738220812434,55.14154413617718
1473.0,57.72390240209655,60.14752524658543,55.310321228657465
1474.0,58.39785591049055,62.28410704307621,55.87327868399755
1475.0,59.3612481543386,63.72942888795757,56.98738796238166
1476.0,60.4089811268979,64.66748023568435,58.32917254022685
1477.0,61.3825832070317,65.33730167026741,59.03019820568661
1478.0,62.03004588118918,65.9039264352937,59.19441416703291
1479.0,61.92146861956533,66.00209379601135,59.23560453290349
1480.0,60.99056657531428,66.14202064706494,59.080536367045426
1481.0,60.18312992182134,66.99587924034967,59.204485224599914
1482.0,59.84133322607963,67.8987325863177,60.098991156640054
1483.0,59.38341527926609,68.0151147226961,60.99654968758218
1484.0,58.70540608689921,67.53335140131128,60.799530705175805
1485.0,58.0788646728694,67.29379848017427,59.45541901335473
1486.0,58.04369682777658,67.142476003479,58.27500730518106
1487.0,58.57944614277215,66.50482044303389,58.55915863844996
1488.0,59.05968743238656,65.89695969128796,60.32869772043685
1489.0,59.94204508810993,65.4623107545209,62.62021338149362
1490.0,61.817596180073494,64.7144029407536,64.55788772581761
1491.0,64.16601961066043,64.26700064307863,65.98713291484833
1492.0,66.26649685700293,64.47141330793103,66.87059402399818
1493.0,68.04743431516012,64.71576228570753,67.25367002130515
1494.0,69.4549089540893,64.69678782789266,67.09318790767509
1495.0,69.79373712008078,64.36653641546107,66.93180919952711
1496.0,68.8932227173159,63.48100846597068,66.936586899359
1497.0,67.90758939537973,62.78327254062034,66.84646131666969
1498.0,67.19319288249548,62.95174960828999,66.9445202748122
1499.0,66.40037092044429,63.768084961089066,67.46033793419551
1500.0,66.04795884178947,64.61213954117056,68.05595284479138
1501.0,66.64976053199896,64.27327350884441,68.25938997579713
1502.0,67.57140721941823,62.84433612271279,67.84103773584582
1503.0,67.8906377237926,61.76110816086067,67.47218588292601
1504.0,67.54384979198682,61.45791939855272,67.42222607029643
1505.0,66.95410310821573,61.74820131626318,67.440757489051
1506.0,66.42203765226107,62.80499232707637,67.53803091830287
1507.0,66.13052377881945,64.52564692806217,67.61654932652041
1508.0,66.27231242035049,65.90221994301514,67.40391254717521
1509.0,66.66663740544897,66.10511178730346,66.6962374527485
1510.0,66.59288854888452,65.34547943618331,65.74868059967727
1511.0,65.73001919838549,63.88799267930894,64.298772347124
1512.0,64.71264892499514,62.42640449039607,62.22426600867927
1513.0,64.21510370064611,62.16676603983319,60.7332805791665
1514.0,64.75692712255284,63.63628007454222,60.75811093601863
1515.0,66.10540701106066,66.1693008324666,61.72662575841314
1516.0,67.69968487290059,68.78824361547576,63.29470259094309
1517.0,69.28694432894878,70.5853664203274,65.59305814716222
