0.9376728449221321,67.24962479460267,67.20906033129971,67.26149514062693
1.2710185347663963,68.01244508283817,67.98837004019003,68.47344691355562
1.6043642246106602,69.59999333753457,69.14757960122877,70.27667951433615
1.9377099144549246,70.34013584939946,69.47305004217684,71.24139882329796
2.2710556042991885,71.23027575944897,70.47833046080652,72.87783838374321
2.604401294143453,71.07851790085303,70.81470136296748,73.70597736345174
2.937746983987717,71.64319374482261,71.94131833696986,75.09893015595692
3.2710926738319808,72.72360031979998,73.5924632171052,76.65266088702298
3.604438363676245,72.99173487721491,74.27734863262444,76.81137403622175
3.937784053520509,73.7746695405837,75.55499160087305,77.57969562340818
4.271129743364773,73.52849567740971,75.50580334064375,76.90254846130266
4.604475433209037,73.46293275386087,75.67615082681193,76.78407952166613
4.937821123053302,73.76456773425696,76.20616354461532,77.1268633527063
5.271166812897565,72.81201011509363,75.77089974877057,76.40609396664023
5.60451250274183,72.14590096569202,75.93536092497406,76.30836457556263
5.937858192586093,71.99806842625672,76.76538992174915,77.04021361419537
6.271203882430358,71.18264362209507,76.1477141746789,77.02905432965721
6.604549572274623,71.15034369107035,76.45993911698652,77.67414671889922
6.937895262118886,70.03474562936421,75.95317430344862,77.15809234263781
7.271240951963151,69.4403481859292,75.88145984408695,77.46342424268795
7.604586641807415,69.5246097542447,76.53223358912412,78.54016459965815
7.9379323316516786,68.90929520908061,75.68926065070941,78.13437753696637
8.271278021495942,69.07841689292486,75.42798503742746,78.19204823427958
8.604623711340206,68.2269546565192,74.60759078554022,77.02844023629682
8.937969401184471,68.17171469842368,74.29254421320256,76.76971405226533
9.271315091028736,67.20618189617517,72.95899554223645,75.75002199801249
9.604660780873,66.91137833704656,71.88021951457777,75.38631441760677
9.938006470717264,67.02386513886061,71.44542275125589,75.81613797756546
10.271352160561527,66.46257956757279,70.21639148893075,75.13505067365162
10.604697850405792,66.44965212478967,69.50339240930344,75.31519406079782
10.938043540250057,65.47295021421162,67.81300576265842,74.17506695802244
11.27138923009432,65.06284089855546,66.79514465227149,74.01490192620116
11.604734919938585,65.32834345027598,66.3864233352135,74.43687128130357
11.938080609782848,64.8661156633043,65.21107692284754,73.6124539683106
12.271426299627112,64.8722642821702,64.91218824764687,73.40489654044043
12.604771989471377,65.23920773677283,65.08581087108861,73.51700147578657
12.93811767931564,64.7956300073036,64.59298396064,72.35766809926668
13.271463369159905,64.96676665888029,64.65661498816164,71.76773686209074
13.604809059004168,65.50867719620673,65.34979172806615,71.68281293766832
13.938154748848433,65.12495116950669,65.51847822463081,70.62838551954835
14.271500438692698,65.03256674653443,66.0444662552561,70.22302457901884
14.60484612853696,65.17957190735194,66.90258206573046,70.22678238030113
14.938191818381226,64.40024283219603,66.8620740870752,69.11441188075062
15.271537508225489,64.04945488442127,67.17757202982861,68.44724306785673
15.604883198069754,62.66695933395779,66.4171891092054,67.22009806477578
15.938228887914018,61.82793751754254,66.03894594547961,66.47888982539865
16.271574577758283,61.69750003584824,66.25008369001208,66.30165812633484
16.604920267602544,60.76606937474499,65.48073930062594,65.3761595678997
16.93826595744681,60.488245359153446,65.32620668404236,65.21881368802254
17.271611647291074,60.79861565761857,65.73816612504764,65.71343804504124
17.60495733713534,60.40783564728145,65.26341532017766,65.23291571412189
17.938303026979604,60.17906043960254,65.41394261812324,65.21157587133085
18.27164871682387,60.426124457421004,65.97667731358162,65.40647106632625
18.60499440666813,60.07105407593096,65.69973034297597,64.8991384725441
18.938340096512395,60.17007479414523,66.02208560993122,64.95382158552586
19.27168578635666,60.95135098358836,66.92342168962125,65.65545873882274
19.605031476200924,61.000571570192996,66.61706418304684,65.24351934901925
19.938377166045186,61.64071547786633,66.42413227168855,65.50264249520635
20.27172285588945,62.67986184241035,67.04151765900815,66.56344403400651
20.605068545733715,62.78306166856839,66.84373521337544,66.44310563471572
20.93841423557798,63.21028813601692,66.95938114911108,66.75102120691413
21.271759925422245,62.876990020552796,66.28402773358613,66.28257190712398
21.60510561526651,62.77081276202065,65.97543716042806,66.08314636742858
21.93845130511077,63.235433424574666,66.31399296272633,66.55851105752704
22.271796994955036,62.97777016520958,65.5800854221078,66.12701379249282
22.6051426847993,63.09399616126634,65.0393385232416,66.21592496361762
22.938488374643565,63.85247798520355,64.99182302319682,66.90497103544675
23.271834064487827,63.96835411386049,63.77197119970482,66.52848585767894
23.60517975433209,64.58761611552146,63.50014752734076,66.93044943860245
23.938525444176356,65.78206538586589,64.04371174564173,67.91965889799594
24.27187113402062,65.77028766734954,64.0536989196545,67.70149326777448
24.605216823864886,65.92302252956829,64.34972891924086,68.19001110710857
24.93856251370915,65.27627327417048,63.77648332839509,67.68951610451133
25.271908203553412,65.09453653808572,63.50394090150369,67.35492715299145
25.605253893397677,65.25493267965953,63.55709088983788,67.4070682827568
25.938599583241942,64.23580943926528,62.82298837058304,66.29046415429956
26.271945273086207,63.636808748611536,62.511447722755214,66.12436750340623
26.605290962930468,63.415477470664584,62.647075433189066,66.20167466126557
26.938636652774733,62.353311373643656,61.94493616560881,65.48677736506237
27.271982342618998,62.028258028180424,62.14192926586664,65.49261121183679
27.605328032463262,62.51365185476948,62.76694333408298,66.01479992825898
27.938673722307527,62.099661273082226,62.84703711490524,65.66319921213011
28.272019412151792,62.10208001049362,63.34958888425862,65.53438162229007
28.605365101996053,62.59516248230823,64.2213987771805,65.9504740665345
28.938710791840318,62.340045803262775,64.33294257546606,65.56619258128933
29.272056481684583,62.48998073858425,64.86798180462469,65.98860242718399
29.605402171528848,62.70491870983326,65.71295724139517,66.75683172587223
29.93874786137311,62.16042924381636,65.76520721636273,66.80099166207066
30.272093551217374,62.13933186203458,66.19519317482487,67.11157261693623
30.60543924106164,61.28536623232973,65.83541860529041,66.31663083670868
30.938784930905904,60.81477486914107,66.14968395278413,65.99094185977943
31.27213062075017,61.0874193326529,67.02774789872782,66.29604288741365
31.605476310594433,60.597587609797856,66.7559724094775,65.6627739845591
31.938822000438698,60.90607704727502,66.76372677992939,65.61352239247553
32.27216769028296,61.40954544301278,67.47706502722468,65.91542752129618
32.60551338012722,61.19600671857684,67.32995131055434,64.79086992183532
32.938859069971485,61.49828909678167,67.85010904951665,64.07894588161574
33.27220475981575,62.62355465597212,69.11350154529995,64.19149877657345
33.605550449660015,63.06572094268174,69.23419268094611,63.325401763245395
33.93889613950428,63.82678252074924,69.59498636141524,63.02228741558355
34.272241829348545,64.90282852040882,70.43934713902384,63.68526802942042
34.60558751919281,64.97554494210405,70.52605631912537,63.431680684136175
34.938933209037074,65.59956940110382,70.93126943701971,63.386621302178476
35.27227889888134,65.34186998173469,70.68082830570978,62.71886148467358
35.605624588725604,65.70081944104035,70.58397492166806,62.95838969549046
35.93897027856987,66.76251988960189,71.16126758379716,63.296592769456105
36.27231596841413,67.09595079866554,70.6533218744489,62.92522799466181
36.60566165825839,68.03850137376936,70.92477933857039,63.43381003927203
36.939007348102656,69.46127957484904,71.79827184149721,64.36765653375745
37.27235303794692,70.00999807751529,71.64775582467048,64.52214764165117
37.605698727791186,70.83568404996595,72.09998197413597,65.31244540221618
37.93904441763545,70.68089452852223,71.64937293249898,65.10377480732812
38.272390107479715,71.55712163114966,71.56944179934506,65.45658246038084
38.60573579732398,72.80139234079336,71.81395262795816,66.50159791997675
38.939081487168245,73.18695039949522,71.43501890888041,66.7800275431159
39.2724271770125,74.05179760186813,71.32387801286556,67.7171919434058
39.60577286685677,73.97759236802517,70.14589075747844,67.77964038647332
39.93911855670103,74.43557657945622,69.83540067228556,68.07679542381196
40.2724642465453,75.35374779312204,70.63399506709803,68.85800851849339
40.60580993638956,75.09739396673675,70.62846596591429,68.59249678879087
40.93915562623383,75.62089943957305,70.8249266107743,68.65254043819039
41.27250131607809,75.28966336368978,70.10993155569996,67.83057953388384
41.60584700592236,75.35862550453356,69.898147548236,67.67311949017876
41.93919269576662,76.12688006290604,70.22053534136145,68.45749875321508
42.272538385610886,75.61494159264736,69.64640842781704,68.58152954674962
42.60588407545515,75.46462291511149,69.54810845356647,69.37794334322692
42.93922976529941,74.02630682988948,68.64110802173296,69.33700017996584
43.272575455143674,73.39244995369961,68.53647235881081,69.78884035634246
43.60592114498794,73.69753383991477,69.0881380790572,70.72505838570136
43.9392668348322,73.18177365285511,68.47667169802064,70.75927554539479
44.27261252467647,73.30273532338649,68.22898975694608,71.24963533966114
44.60595821452073,72.50247721453931,67.32388708667989,70.47297345528034
44.939303904365,72.57347251995238,66.96800354039522,70.09026483207255
45.27264959420926,73.50680165740539,66.82563590294599,69.98357117308589
45.60599528405353,73.22671076847226,65.742103248037,69.04671869736126
45.939340973897785,73.6645438965641,64.98633103805001,68.64243392104399
46.27268666374205,72.95364202727421,63.51206345468472,67.43941221671426
46.606032353586315,72.78199674908994,62.38777339100622,67.01551254340474
46.93937804343058,73.20544042807694,62.02791058363469,66.97406236987575
47.272723733274844,72.8693662146081,61.450964405294755,65.99357227995677
47.60606942311911,72.80917319894793,61.5096645438255,66.094755719999
47.939415112963374,73.0788540307149,62.054281446639045,66.87333062153887
48.27276080280764,72.3259280405827,61.927372239231566,66.54200136150186
48.606106492651904,71.9963404332472,62.17696681288046,66.33227063257937
48.93945218249617,70.87586107386751,61.99405555931455,65.17924563537163
49.27279787234043,70.25004010278921,62.18972634432545,64.4020152689101
49.60614356218469,70.1369607354654,62.66128378409572,64.24108463142333
49.939489252028956,69.13647608968502,62.53321815469533,63.42590524826721
50.27283494187322,68.94550633171094,62.60775834792086,63.13900504951381
50.606180631717486,69.2252058733943,63.23791932798703,63.5757567884749
50.93952632156175,68.43027980065628,62.807059839263694,63.20461099746887
51.272872011406015,68.1008812180228,62.955264242362645,63.37904129597982
51.60621770125028,68.35445545668017,63.6887365260355,64.24022194528729
51.939563391094545,68.00582582761336,63.53153594345454,64.33071042114221
52.27290908093881,68.17772692476018,63.914167253169296,65.1534779917818
52.60625477078307,67.46052761862568,63.361103152826345,65.07647458182919
52.93960046062733,67.47410705193982,63.38246368569729,65.16764991403389
53.2729461504716,67.83435082749558,64.02973936005743,65.95234285961246
53.60629184031586,67.41977592330333,63.62474660863124,65.64964101692718
53.93963753016013,67.47120158367184,64.04006154640197,66.06371918455346
54.27298322000439,66.95271215533586,63.71650045097412,65.47346613435695
54.606328909848656,67.02944039367388,63.95947432731813,65.25888170204149
54.93967459969292,67.43517262406635,64.8090536124101,65.55833796473682
55.273020289537186,67.17011323585679,65.09218959664379,64.90215386297675
55.60636597938145,67.02398539523962,66.03203738793592,64.89016925654957
55.939711669225716,67.50385921543311,67.35068314404631,65.5814415674767
56.27305735906998,67.11283803663808,67.64391201461864,65.13288961136105
56.60640304891424,67.22319764993293,68.42924358023178,64.79605784944034
56.9397487387585,66.20085446979058,67.98334113476558,63.57095145551067
57.27309442860277,65.91803014455256,68.12821086516544,62.9552466817985
57.60644011844703,66.07635261558876,68.93200828276238,62.75144166308736
57.9397858082913,65.28669375085825,68.92913979970193,61.611808982040664
58.27313149813556,65.18565176933761,69.67691293108483,60.819786202803535
58.60647718797983,65.62892590070253,71.0221312828418,60.768500364091565
58.93982287782409,65.43480427766094,70.97880785191673,59.723038428238056
59.27316856766836,65.69597894479196,71.11872975766694,59.253613546999674
59.606514257512615,66.16124330532733,71.62968528334122,59.44557151356913
59.93985994735688,65.77862672043732,71.10527660588642,58.82707015088717
60.273205637201144,66.01710237146689,70.98568573468684,58.72272020548609
60.60655132704541,65.64707713447991,70.29290650874614,58.234743088719554
60.939897016889674,65.95820987805273,70.46151189382644,58.25846843438065
61.27324270673394,66.70804345799601,70.96890156492928,58.882312000025635
61.6065883965782,66.60092218882991,70.37668332887017,58.74656166546709
61.93993408642247,67.06892716429098,70.35932866579667,59.197669751120976
62.27327977626673,67.37288035255396,70.40717472250394,60.00164460818023
62.606625466111,66.42365585618694,69.29821342693415,59.812708872109276
62.93997115595526,65.87502294598981,68.67546744391517,60.071761546179715
63.27331684579952,65.89662001312384,68.52864022460444,60.861480851196475
63.606662535643785,65.20310871199733,67.21328709512738,61.013919931500645
63.94000822548806,65.03650095333572,66.47348735804103,61.82302497054252
64.27335391533232,65.74315933706968,66.17020209545545,62.973879529392306
64.60669960517657,65.79632654309593,64.99195025101504,63.067582043735555
64.94004529502084,66.22773713070556,64.456110152991,63.61633263697666
65.2733909848651,67.23156994440262,64.19502149420468,64.8345188743764
65.60673667470937,67.05343282909278,63.0241036771957,65.39199989973011
65.94008236455363,67.37866712372715,62.64471274104436,66.33562132036027
66.2734280543979,66.79034299960247,61.45137975906935,66.26886553529577
66.60677374424216,66.68201240549135,61.16496514594818,66.60006997075969
66.94011943408643,66.9440008914309,61.64019298810312,67.14365829603715
67.27346512393069,66.38477461012786,61.37548328243758,66.84191032982783
67.60681081377496,66.31717755275177,61.65040909218845,67.35271652690058
67.94015650361922,66.49220404447425,62.17472353207075,68.44856156090803
68.27350219346349,65.6332564395312,61.595122777495504,68.603525686786
68.60684788330775,65.6207823018096,61.33235294871413,69.50068972529706
68.94019357315202,66.25510809593369,62.0822304863494,70.99678564939572
69.27353926299628,66.15606260504022,62.24012041183029,71.22189997511434
69.60688495284055,66.47344017700766,62.835208998015986,71.84375707817765
69.94023064268481,66.22263605702769,62.39800240663692,71.00609619146285
70.27357633252907,66.50930890695807,62.45647832397561,70.53545551081908
70.60692202237334,67.15573601256717,62.697474128944066,70.15845138983484
70.9402677122176,66.80728831495287,62.22547728205131,68.92220241700416
71.27361340206187,66.69882468421655,62.32956178892874,68.25300939809514
71.60695909190612,66.92123507612635,63.00091251624189,68.19364984264995
71.94030478175038,66.48979282055816,62.69722264699445,67.31526538586829
72.27365047159465,66.75327507912326,62.91072993513628,66.97471079741452
72.60699616143891,67.56172875395777,63.57654209410228,67.19826572003129
72.94034185128318,67.34548977879128,63.38075144084944,66.40424392592388
73.27368754112744,67.2264248534186,63.78369051105844,66.15671655709544
73.60703323097171,67.5701571540775,64.54622786230179,66.69703259440729
73.94037892081597,67.11130791792988,64.25810404347715,66.5291032461353
74.27372461066024,67.54930069107101,63.99965676240866,67.00026347955043
74.6070703005045,67.0600739705223,62.773014019993724,66.30433279372951
74.94041599034877,67.02454773238354,61.90628554025968,66.19273986825277
75.27376168019303,67.49681583416839,61.586178167030724,66.74962063479299
75.6071073700373,66.93144330206955,60.64407932890692,66.36086766315405
75.94045305988156,66.669923264199,60.274067983288745,66.58160922483482
76.27379874972583,66.97600526452771,60.48423719173973,67.48933146145033
76.60714443957009,66.37703942889792,59.9573245657043,67.6730701485588
76.94049012941436,66.05509567707098,59.83590909356161,68.44818421447805
77.27383581925862,66.55241535278515,60.122411089131106,69.73611575149667
77.60718150910289,66.15683341340251,59.41516252753899,70.16927570687162
77.94052719894714,66.10490338353797,59.324550145453244,70.96865392540397
78.2738728887914,65.04858574044842,58.915778718651985,71.00060061805362
78.60721857863567,64.52998003480079,58.63563893452943,71.4280908266287
78.94056426847993,64.8193321370386,58.937266306273806,72.14162632484765
79.2739099583242,64.19726694378387,58.494628116814376,71.67559240235016
79.60725564816846,64.01061983155397,58.333507845604274,72.02804542551173
79.94060133801273,64.06936830746247,58.831516035151445,72.88088109083353
80.27394702785699,63.23638343982489,58.65188040316773,72.69694522988405
80.60729271770126,62.75898333252601,58.96497925471497,72.87217152421736
80.94063840754552,62.93475060402292,59.7834580695021,73.2216553462351
81.27398409738979,62.52819721088821,59.69018162042874,72.77914983791284
81.60732978723405,62.47102743216799,59.917927576646626,72.71501843106984
81.94067547707832,61.327912180882116,59.23460379868855,71.68039489837818
82.27402116692258,60.65793572894951,58.96754443322424,70.96241648139029
82.60736685676684,60.5650309443302,59.46336441184724,70.7968875277391
82.94071254661111,60.121191478092534,59.14436608426732,69.51697610720623
83.27405823645537,60.506199581111474,59.16767846485252,69.22199944415084
83.60740392629964,61.40727077302696,59.76878007623273,69.27805725143669
83.9407496161439,61.47065039316687,59.49923748364947,68.34598819702506
84.27409530598817,62.19825596256028,59.59963317531327,68.02507813677299
84.60744099583243,62.277402460778475,59.24633963353884,66.67045022339649
84.9407866856767,62.56717502753034,59.34216189450566,65.94990333214056
85.27413237552095,63.29185035082572,59.777793355879936,65.4358817112099
85.60747806536521,64.1752482377878,60.61231751721099,65.60885190530838
85.94082375520948,64.14250206040674,60.60419847308555,64.89867924295832
86.27416944505374,64.71484451694745,60.8932868614073,64.92550705257077
86.60751513489801,64.29704479886509,60.4776003134804,63.67085198648419
86.94086082474227,64.11440905169857,60.60450145775785,62.98238185224436
87.27420651458654,64.18863966466938,60.92395900808884,62.85768705261705
87.6075522044308,63.138737534282406,60.700996975460804,61.75245649400739
87.94089789427507,62.18809080316636,61.06444855218459,61.161112241578245
88.27424358411933,61.92127236415957,61.81194131883092,60.9649086054911
88.6075892739636,60.915526948969,61.65440852881554,60.0970350458325
88.94093496380786,60.47992483579859,61.78594540734174,59.8433118458551
89.27428065365213,60.482590985089,62.17850236422051,59.95095688398107
89.60762634349639,59.77624100859527,61.884026235828436,59.206214527827754
89.94097203334066,59.82332444699538,62.10596638339833,59.027595773858074
90.27431772318492,60.34159586378688,62.95949811778171,59.10076682699432
90.60766341302919,60.213683332061116,62.954714094517804,58.661486872557376
90.94100910287345,60.666725533226455,62.99673859047352,58.5953599112464
91.27435479271772,61.3853537502186,63.51442706519999,59.199168661854195
91.60770048256197,61.228982178024374,63.064987284531654,59.0620888930561
91.94104617240623,61.34671885779252,63.20528858394715,59.454415270139755
92.2743918622505,61.90136272995435,63.55037693318185,60.244060225078215
92.60773755209476,61.62739450126456,63.06980561052531,60.378435266812204
92.94108324193903,61.840614097677815,63.37806767454261,61.009720738319785
93.27442893178329,62.57130937031886,64.07542282860805,62.071989776796116
93.60777462162756,62.56833802474483,63.92584780444523,62.60212582567619
93.94112031147182,63.15149408485189,64.4310751888593,63.64094871092139
94.27446600131609,62.74694267417951,64.25670592073814,63.469298470232154
94.60781169116035,62.7988925940584,64.4211512735384,63.66994736668594
94.94115738100461,63.687324401645945,65.1153027258039,64.51397376336273
95.27450307084888,63.709706772880736,64.96755916948415,64.01319346098417
95.60784876069314,64.20260304028898,65.44111823551168,63.70765783801919
95.94119445053741,65.07954533059232,66.32627875650451,63.9400112581285
96.27454014038167,64.97469373919964,66.1402861651873,63.60182196696261
96.60788583022594,65.34190168471324,66.46445003001243,64.13841281896295
96.9412315200702,64.54172402126737,65.93680873339852,63.86029794934999
97.27457720991447,64.0390669272238,65.7715034095639,63.85917145264639
97.60792289975873,63.921314154025424,66.17411625157652,64.2507545484224
97.941268589603,62.9897394144553,65.36690532750833,63.80197746730915
98.27461427944726,62.5468504961836,65.38003361715323,63.8214236276591
98.60795996929151,62.85508331720034,65.82548987831669,64.48109105284945
98.94130565913578,62.20708284218003,65.51921382525597,64.25354504132872
99.27465134898004,61.94161899796484,65.9903783234693,64.2349394881153
99.60799703882431,62.1107540824824,67.38819140258833,64.65432034140032
99.94134272866857,61.61359446565494,67.99426707408882,64.18686059113566
100.27468841851284,61.60777255691637,69.38383170954575,64.31920328882939
100.6080341083571,61.00077127351025,69.25156561870193,63.666744619528686
100.94137979820137,60.95406254532208,69.19464059484666,63.73380339849638
101.27472548804563,61.39220634948733,69.5370258505548,64.51308151209105
101.6080711778899,61.20371996945711,68.8253201101645,64.47371407507325
101.94141686773416,61.528902424499265,68.2710342074475,64.99604743659833
102.27476255757843,62.25492465524828,68.44606869841459,66.14071299310157
102.60810824742269,62.23584017225527,67.69978844346053,66.24928190034649
102.94145393726696,62.79373697063611,67.45344286509226,66.89345746298754
103.27479962711122,62.45156812327535,66.63845470760438,66.64253261031301
103.60814531695549,62.35827928461995,66.50372623381773,66.96154446012059
103.94149100679975,62.701324953123226,66.82240417497992,67.65078789177876
104.27483669664402,62.75204364552725,66.35201335795871,67.63803308756326
104.60818238648828,63.724200576123565,66.67171259995098,68.21077205067458
104.94152807633255,65.49135829561199,67.72467578111048,69.58734584532736
105.2748737661768,66.32872232918943,67.55946296055602,70.30249001879501
105.60821945602106,67.86238837034672,68.0836771221005,71.50675647927949
105.94156514586533,68.14111792634716,67.35948372523501,71.3443719017122
106.27491083570959,68.75560306236217,67.22164358100719,71.92852496463624
106.60825652555386,69.75768155290793,67.36235736300863,72.93102566769751
106.94160221539812,69.8545670170241,66.70443012400288,72.68880670577406
107.27494790524239,70.50140910592414,66.60698331233566,73.07943533424441
107.60829359508665,71.31365613960996,67.21502629694534,73.57407791120453
107.94163928493091,71.22239924561838,66.918001038059,73.27027033023862
108.27498497477518,71.252004739317,67.20150487475071,73.64571336457237
108.60833066461944,70.24009624123279,66.43032759528242,72.95822876704679
108.94167635446371,69.92890247931268,66.35358465695627,73.045995783409
109.27502204430797,70.15932242196278,66.92754990648137,73.90893324025352
109.60836773415224,69.53746180719894,66.43754972882925,73.3830123282814
109.9417134239965,69.75083085236503,66.91188586755507,73.29735542764008
110.27505911384077,70.25364615735603,67.67222452290615,73.86469962515297
110.60840480368503,69.81807593141258,67.48799476771471,73.49745432340173
110.9417504935293,70.15625859550352,67.57063896858946,73.60176802059965
111.27509618337356,69.47456082885671,66.79808914995608,72.87666996970921
111.60844187321783,69.71770234339031,66.80864968271315,72.72121993720747
111.94178756306209,70.56637196838682,67.6325287410818,73.43939259304335
112.27513325290634,70.52249842254466,67.34749487665154,73.3072674842324
112.60847894275061,71.23644813897603,67.48928250726847,73.69766033150776
112.94182463259487,71.06870730854564,67.06347738558716,72.75728609810515
113.27517032243914,71.22481492240938,66.88744668489376,72.60478580590767
113.6085160122834,72.09436082734138,67.30668257300154,73.26704568965036
113.94186170212767,71.82656535108474,66.86103086167356,73.06899962360345
114.27520739197193,72.33882059250449,67.23330799656375,73.26587288580933
114.6085530818162,72.4676121198887,66.52763629303584,72.59387703260083
114.94189877166046,72.95684354033038,66.30554633393075,72.81129447031174
115.27524446150473,73.76081771709798,66.51475707897723,73.19461901884722
115.60859015134899,73.35790054215923,65.73342052772917,72.24355815831218
115.94193584119326,73.85088108388754,65.54085229560366,71.7101692972346
116.27528153103752,75.06598455676163,65.7954204191773,71.46595108701972
116.60862722088179,75.1907145629794,65.3504698021371,70.37777675419973
116.94197291072605,75.4665727648159,65.6757711876387,70.13972938010474
117.27531860057032,74.77921891391499,65.21155864047176,69.25197718453593
117.60866429041458,74.49032200331041,65.46971671998696,68.9340790832725
117.94200998025885,74.5405759389393,66.23177632637312,69.34221183647122
118.27535567010311,73.61831480910159,66.22359422956879,68.91900831689134
118.60870135994736,73.43430339585578,66.67065218799614,68.91530879860791
118.94204704979163,73.9222743726823,67.54090866432844,69.39678683932709
119.27539273963589,73.63198111271677,67.23470797573825,69.03210352474296
119.60873842948016,73.79400051085213,67.22752992943992,69.08025387741111
119.94208411932442,72.85282733774123,66.13683326528353,68.42792486383149
120.27542980916868,72.43656438370103,65.78850133613426,68.43244436516403
120.60877549901295,72.71293908970179,65.74999375913468,69.06511664175284
120.94212118885721,71.95314779107491,64.718789598276,68.41720374212035
121.27546687870148,71.48946470604446,64.20998352408941,68.12474102152679
121.60881256854574,71.46299227377082,64.14822977623328,68.29731892343447
121.94215825839001,70.94408645557732,63.559626428460945,67.37217197270594
122.27550394823427,70.78735991815358,63.487751542344526,66.88748353364552
122.60884963807854,71.29378896245595,63.84104126472229,67.16219644640141
122.9421953279228,70.65058979960672,63.25026680511598,66.51654552020277
123.27554101776707,70.42564293051032,63.37991848979039,66.18909873137753
123.60888670761133,70.98527342460115,63.91705445739669,66.35734497655096
123.9422323974556,70.73360516083795,63.576597374518215,65.65660869319764
124.27557808729986,70.89773848530544,63.95207902399414,65.45992471054299
124.60892377714413,69.95705326549854,63.67489303099497,64.3045486040865
124.94226946698839,69.7879121738379,64.01527636743882,64.10250096593577
125.27561515683266,69.65026079943962,64.74841093799283,64.1623575876163
125.60896084667691,68.71433331823494,64.70516397198429,63.42043129624266
125.94230653652117,68.3100189326831,64.73451647519676,63.41437922712984
126.27565222636544,68.4845597491609,65.41166101497052,64.12695519844493
126.6089979162097,67.83845119908948,65.41965321583443,63.73720378529664
126.94234360605397,67.92795277542882,65.79399050391419,63.97278965026819
127.27568929589823,68.70322474823924,66.80207918495742,64.62999511321956
127.6090349857425,68.58883276063156,66.87640168904105,64.4702973143178
127.94238067558676,69.11491290887956,67.44814387889231,64.97693652216509
128.275726365431,70.31085389478768,68.50565510917207,65.68581801180278
128.6090720552753,70.40506824636596,68.29746487688627,65.59171002938116
128.94241774511954,70.91066569435431,68.69932012290423,66.34196602301463
129.27576343496384,70.3291466906586,68.37117720568766,66.32283048714716
129.60910912480807,70.05422075778324,68.49864773598907,66.86126262744341
129.94245481465236,70.57693339376492,69.32426263112158,67.49318774676956
130.2758005044966,70.58256840558407,69.09030960021089,67.09611369535028
130.6091461943409,70.90032610501966,69.19047723504492,67.19769541226752
130.94249188418513,71.73185589387563,69.4004589170635,67.93708020193148
131.27583757402942,71.62648538924483,68.60430144819603,67.58539630197008
131.60918326387366,72.03364316503153,68.35082849332343,67.54480713649835
131.94252895371795,72.88417599302969,68.92933347524189,68.05463151975036
132.2758746435622,72.372646445483,68.74241551618043,67.6348425652641
132.60922033340648,72.31993595529599,69.47669578464797,67.75406645165272
132.94256602325072,71.21113491393811,69.61384396250652,66.62885246817248
133.275911713095,70.60609454223349,69.81932082030403,66.11577026663386
133.60925740293925,70.38265810671575,70.35939774577673,65.97879807202806
133.94260309278354,69.03796408012688,69.52055914525194,65.0377218230591
134.27594878262778,68.58259179178981,69.54469177250576,64.97752939658605
134.60929447247207,68.73646936843379,70.35272547080454,65.66487130374678
134.9426401623163,67.87319901686539,69.68888636928234,65.51249829626337
135.2759858521606,67.5061111993805,69.75762167447962,65.90779126833657
135.60933154200484,68.05284337077815,70.79730600025772,66.9200205503007
135.94267723184907,68.06178399598367,71.22991161082265,67.14853240414082
136.27602292169337,68.4678514139198,71.87219188753099,67.71824221389024
136.6093686115376,68.30166981159704,71.32951258627912,67.113382941885
136.9427143013819,68.59714115518626,71.3448280784566,66.42223297833517
137.27605999122613,69.51557701829728,71.81448862906991,66.58007728713855
137.60940568107043,69.7405879536949,71.51201519060106,66.02814419679166
137.94275137091466,70.40300125155025,72.55246481832312,65.84778669010595
138.27609706075896,69.81845572991308,72.77837124238812,64.6847497241723
138.6094427506032,69.93594498118344,73.35076262732771,63.96276945607655
138.9427884404475,70.46164064375017,74.19460675217427,63.74648389958752
139.27613413029172,69.81314479899653,73.93131120666192,62.77748252165428
139.60947982013602,69.81188459177726,74.00182443574285,62.470020762622205
139.94282550998025,68.93629761988316,73.32431984035175,61.38077438297059
140.27617119982455,68.53979645517275,73.24517557605463,61.140616833638106
140.60951688966878,68.64456477662021,74.06844038372704,61.78946835783699
140.94286257951308,68.146897474955,74.00066101187642,61.882639101819954
141.2762082693573,68.09773788522465,74.66101599434984,62.56820210266688
141.6095539592016,67.17089075745945,74.2342367067671,62.61387658088877
141.94289964904584,66.41593898578881,74.3953308433272,62.98191985369842
142.27624533889013,66.63612900313333,75.32892059441185,63.71722564640486
142.60959102873437,66.2033091329194,75.03666328421204,63.623301963507686
142.94293671857866,66.13706478991917,74.92414977550553,63.88795057967959
143.2762824084229,66.35190983616101,74.97382906514953,64.80213319584047
143.6096280982672,65.75816639042816,73.84568808100144,64.7624918938626
143.94297378811143,66.03762252057537,73.36490709773803,65.24568874802237
144.27631947795572,65.45316771346147,71.89606657076355,64.87751198390566
144.60966516779996,65.6325439415046,70.9277661356483,64.85181548937703
144.94301085764425,66.44687025681064,70.63004945117355,65.38716148761287
145.2763565474885,66.4908883080881,69.41005978967081,64.81249724228336
145.60970223733278,67.09044081402598,69.08048828845335,64.95982926960916
145.94304792717702,68.07654123314182,69.67213301367009,65.4658539732809
146.2763936170213,67.94700127760692,69.20380116092281,65.03994131603739
146.60973930686555,67.99971126987336,69.32132023814451,65.17470409598461
146.94308499670984,68.88701269236599,69.75857326636678,65.61129686294338
147.27643068655408,68.8085268898404,69.3365571083028,64.70835837398693
147.60977637639837,69.19880170171656,69.50929757024035,64.2475793489445
147.9431220662426,68.24713093648228,68.84161742987602,62.858020167973486
148.2764677560869,67.8263654748794,68.84451597673433,62.13932795383036
148.60981344593114,68.12932578043126,69.37904804135981,62.00437028457486
148.9431591357754,67.66841624342919,68.78990349201939,61.221682130745265
149.27650482561967,67.86317049728981,68.52001674135656,61.06941473396339
149.6098505154639,68.68829888947744,68.62308837505351,61.44479712986489
149.9431962053082,68.60640040682586,67.83950728925497,60.96774277770309
150.27654189515243,68.63187784789524,67.99894244722286,61.39777866535403
150.60988758499673,68.98337970151468,68.97216660496524,62.299384434505875
150.94323327484096,68.15036777019158,68.78735328162833,62.41282307588761
151.27657896468526,67.5864655305411,68.97394366158753,62.898457561123834
151.6099246545295,66.45904683188535,68.44353392463103,62.56073802695086
151.9432703443738,66.03444855405473,68.16817800258832,62.89151717331478
152.27661603421802,66.09571857256218,68.61242641657212,63.5223598449994
152.60996172406232,64.9460955848635,68.1866326802527,63.21201395337782
152.94330741390655,64.45751522206629,68.31572515063041,63.238611478727606
153.27665310375085,63.155311927917126,67.3808559811865,62.60971557293817
153.60999879359508,62.35827286779005,67.0941620142002,62.63260079300111
153.94334448343938,62.41051312545651,67.53069280940746,63.30143042800829
154.2766901732836,61.980669577733984,67.04618153008016,63.2342589062158
154.6100358631279,61.80271390510407,67.1809772207077,63.796622430581046
154.94338155297214,62.0695115579977,68.19909183416871,64.95922740815688
155.27672724281643,61.62799420488679,68.0923373532483,65.53236791138325
155.61007293266067,61.815367561332096,68.60197799553698,66.52549369605767
155.94341862250496,62.639012302337974,69.56014845003428,68.20466577182309
156.2767643123492,62.64642786937117,69.50620237156079,69.02046652142656
156.6101100021935,63.24701985196845,70.14462230559883,70.66652794737671
156.94345569203773,63.31448223931501,69.8983663235265,71.14022125471146
157.27680138188202,63.82450890272813,70.28524296487647,71.80670422997316
157.61014707172626,65.03571583118057,71.0933970615072,73.05271514023839
157.94349276157055,65.48483276219022,70.65032444024804,73.3828065427157
158.2768384514148,66.5114442972781,70.88041261979565,74.33084037966505
158.61018414125908,67.57223753605803,71.4695618630569,75.6666114877147
158.94352983110332,67.87183745244072,71.44325939188991,75.68716183413434
159.2768755209476,68.75092843828784,71.96584049980571,76.2596211270025
159.61022121079185,68.46517686894515,71.74068687308952,76.0405843500935
159.94356690063614,68.71873257337577,71.98729710283655,76.38421290303111
160.27691259048038,69.59961665931858,72.87244033248083,77.27749344146594
160.61025828032467,69.80166362593167,73.1329625128491,76.96235925304674
160.9436039701689,70.44398670712039,73.88508088682673,77.05378329186007
161.2769496600132,69.61472700732548,73.57792694434292,76.48017530673563
161.61029534985744,69.25437685376815,73.684282729569,76.9094200777004
161.94364103970173,69.56133910300942,74.6855905673688,77.81689114472013
162.27698672954597,68.9304735586025,74.77593199624039,77.62123590288068
162.61033241939023,69.14708848423982,75.22361593818702,78.31433045896769
162.9436781092345,68.57728076110975,74.95266439709248,77.51411573865215
163.27702379907873,68.37640832299283,74.87809166858915,77.39362706172409
163.61036948892303,68.83564011745428,75.31804446079195,77.7320115832688
163.94371517876726,68.71594827680426,75.20451787060854,76.8449632028346
164.27706086861156,69.3996433668924,75.36486194947231,76.7152284378846
164.6104065584558,71.22913053371701,75.92719188235509,76.91727457379362
164.9437522483001,72.2388149968813,75.14291111799952,76.19324769290648
165.27709793814432,73.96454243154697,75.0804338020858,76.01670972462414
165.61044362798862,74.11629906159268,73.90465101050916,74.74061497395915
165.94378931783285,74.53888660257124,73.43416096903107,74.28271405782016
166.27713500767715,75.63584162895587,73.5847428351217,74.53356032984074
166.61048069752138,75.73957195016119,72.59122175723223,73.94656033511535
166.94382638736568,76.50458482646094,72.09403896581752,73.68843799730476
167.2771720772099,75.84971700158529,71.00082224671704,72.7114993426968
167.6105177670542,75.53329254748641,70.3443861907971,72.52872329805687
167.94386345689844,75.93909088339355,70.22881216757848,72.71042071866691
168.27720914674273,75.4508739724779,69.2091905683779,71.85507099509555
168.61055483658697,75.25284646379592,69.2577137891082,71.73244196858492
168.94390052643126,75.29127586141139,69.80253535627092,72.06087248533382
169.2772462162755,74.3288438103456,69.28597900990675,71.31494742606091
169.6105919061198,73.9868374980946,69.54063053400671,71.36104237644666
169.94393759596403,72.76518727507458,69.11812454597961,70.413450257688
170.27728328580832,72.30996571976127,69.4412396371434,69.92769996531443
170.61062897565256,72.55428629866704,70.55694544250926,70.39844102010072
170.94397466549685,71.74288716083383,70.79236411539641,70.01321753296979
171.2773203553411,71.45975986149,71.75585183870996,70.3099159153209
171.61066604518538,71.92967683699388,73.5047642268299,71.06561778313896
171.94401173502962,71.42783996807388,74.25590427268504,71.16821404243113
172.2773574248739,71.61267102040452,75.62322677941567,71.87762903389367
172.61070311471815,71.03809090919627,76.08874403595553,71.35423040333583
172.94404880456244,71.26788377751694,76.86446510531988,71.30083151455034
173.27739449440668,72.12770290026431,78.18554323153414,71.89749811894438
173.61074018425097,72.34766318241691,78.06981866030524,71.67225166140766
173.9440858740952,73.13093711294687,78.43260321886636,72.24427313336152
174.2774315639395,73.05615291810723,77.74029842157647,71.96987693666918
174.61077725378374,73.70123022113692,77.80669592509496,72.24734464876448
174.94412294362803,73.43085253036438,76.97633822654271,71.34684854758952
175.27746863347227,73.50225223998466,77.0325842554485,71.31999251155132
175.61081432331656,72.63266852823196,76.04858053825104,70.09688071169298
175.9441600131608,72.21809976082174,75.53973769263024,69.6744484530991
176.27750570300503,72.42733454351338,75.7566942897866,69.98912457486144
176.61085139284933,71.82357506359969,74.73836840100745,69.6042550634506
176.94419708269356,71.6225488471986,75.0040422051953,69.97752091681375
177.27754277253786,70.82281869779453,74.30667938488202,69.1840147740681
177.6108884623821,70.5161324062339,74.5223115923386,68.93131125643009
177.9442341522264,70.55439147540483,75.37397527709327,69.10045604591804
178.27757984207062,69.73972325495052,74.80116536760717,68.42284275856909
178.61092553191492,69.69790513968836,74.79085386855887,68.44315387076861
178.94427122175915,69.90057348989512,75.63747002748754,68.81534780234563
179.27761691160345,69.0058525828717,75.46377164053779,68.48174949545106
179.61096260144768,68.73399358548042,75.48265139185055,68.7010348246344
179.94430829129197,67.50524292080205,74.46813596780811,67.84111412736657
180.2776539811362,66.81320892908144,74.26105582204389,67.4961158906481
180.6109996709805,66.42060113801624,74.79852788705213,67.53278614190134
180.94434536082474,65.37897415637627,73.85786269806017,66.49515753957198
181.27769105066903,65.00296976127379,73.19063865100667,66.0839313523726
181.61103674051327,65.33755726873774,72.87582969140567,66.19003453138457
181.94438243035756,64.67855690658205,71.8684702140766,65.53066681296625
182.2777281202018,64.59784334540386,71.60272089600817,65.12549442313515
182.6110738100461,65.09564502431971,72.01709148938878,65.449730736486
182.94441949989033,64.91794059852458,71.52368637780256,65.24002769799154
183.27776518973462,65.19861024706071,71.72148857958098,65.73198020757822
183.61111087957886,65.07802111755908,71.2354379960107,65.49872028915874
183.94445656942315,65.40251597733958,71.39192024330599,65.59561225921033
184.2778022592674,65.70211724939833,72.05465731641104,65.93389769221157
184.61114794911168,65.3359350098933,71.6000680883304,65.11208470329187
184.94449363895592,65.42057956722184,71.8487481899403,64.66197885310078
185.2778393288002,64.82053429312803,71.33529028745453,63.08495394138813
185.61118501864445,64.94892279958871,71.52511074328667,62.41302643890454
185.94453070848874,65.82959389745359,72.03739202409002,62.13432610793136
186.27787639833298,65.54379610163075,71.81067316184016,61.15259401978123
186.61122208817727,65.59174337877421,72.06185851258397,60.754644262261394
186.9445677780215,66.0874448929345,72.97627625733597,61.06043664310356
187.2779134678658,66.0011778156069,73.13908215133024,60.39504957046245
187.61125915771004,66.38984136644811,73.94419938324127,60.14603551677184
187.94460484755433,66.08337910216817,74.19999050413179,59.127777514291616
188.27795053739857,66.35800042404432,75.0779283145805,58.86838745621536
188.61129622724286,67.20770493642655,76.51205756944287,59.56998140947124
188.9446419170871,67.62380466002519,76.80517197900308,59.85280485673241
189.2779876069314,68.26659620643395,77.60212742348106,60.94861097629873
189.61133329677563,67.88605381271822,77.19663741305055,60.98494743131585
189.94467898661986,67.95893713351457,77.15178625392834,61.54324334556432
190.27802467646416,68.4668640362939,77.85928979461107,62.54608963350655
190.6113703663084,68.04557177065219,77.26305966410628,62.80339531633539
190.94471605615269,68.32331487757108,77.40475446534197,63.71997351334513
191.27806174599692,68.16968562605184,76.86022337914582,63.981880926581766
191.61140743584122,68.82230529809634,76.85818450035578,64.98415105061164
191.94475312568545,69.90932891223774,77.41015136107472,66.7108886944853
192.27809881552975,69.94183290334469,77.01631788106017,67.6903799370497
192.61144450537398,70.3052914094074,77.66041260702164,68.99179647214005
192.94479019521827,69.81529093627138,77.04702456061634,69.00253657949374
193.2781358850625,69.62669081058208,77.33672952210915,69.42219594458221
193.6114815749068,70.13643822587075,78.3389482044425,70.48922273795392
193.94482726475104,69.64878406578553,78.11269598468802,70.40028490961063
194.27817295459533,69.97417541433911,78.62957818507903,70.89486255818888
194.61151864443957,69.59902202064578,77.86498603811742,70.55612656903735
194.94486433428386,69.65840312144813,77.66900057926915,71.0479511318419
195.2782100241281,68.94668864197298,76.4053174186767,70.3379662634442
195.6115557139724,68.56289141607519,75.71475886233,70.56386740699627
195.94490140381663,68.69225234663955,75.49749611348369,71.38730275498155
196.27824709366092,68.13503515365863,74.06908727063393,71.16716966112774
196.61159278350516,68.35104986995506,73.89776319962704,71.33244497497321
196.94493847334945,67.70837144778159,72.96752760556541,70.79848991260906
197.2782841631937,67.60512254937419,72.69910298583228,70.99343449286151
197.61162985303798,68.3632844283541,73.24546432312877,71.92629955484875
197.94497554288222,68.43742297916666,72.68691774535418,72.06914268854193
198.2783212327265,69.51951191126072,72.81665692623764,73.0209720552029
198.61166692257075,71.0811268815443,73.631006061933,74.87656636461514
198.94501261241504,71.69746430405466,73.4724686477434,75.71441575284258
199.27835830225928,73.12899281690825,74.1869505726606,77.010807810053
199.61170399210357,73.60978615338475,73.7477163513274,77.35592328618851
199.9450496819478,74.55824122956884,73.93614721907936,78.31238193213204
200.2783953717921,76.22174748103876,75.01094597521123,79.6152334636977
200.61174106163634,77.07301236551663,75.12915556036135,79.69228885016616
200.94508675148063,78.75391879908821,76.34418155245153,80.92671446110882
201.27843244132487,79.47142356713358,76.33632539661204,81.32384494937111
201.61177813116916,80.48007912111731,76.73713810094729,82.39654424398964
201.9451238210134,80.56274081067521,75.93955300635706,82.13204994645643
202.2784695108577,81.36377750322013,75.63609576488456,82.60320099286281
202.61181520070193,82.78963446511489,76.25985710253659,84.13052906216353
202.9451608905462,83.0841566812876,76.34999357407952,84.58547407857786
203.27850658039046,84.27758454360445,77.56389107459918,85.76240094504574
203.6118522702347,84.13415484216256,77.5997742647564,86.05560937900587
203.94519796007899,84.17359396828957,78.12906172292413,87.40713526172709
204.27854364992322,83.08757185773649,77.54827117714228,87.57893134354961
204.61188933976752,82.4270983716747,77.61191504546015,88.03800533135332
204.94523502961175,80.78727633709988,76.66024236615694,87.47957612665016
205.27858071945604,80.22836533387859,76.49542988521176,87.38928963217022
205.61192640930028,80.56826922325324,77.44955516620122,87.97549025072793
205.94527209914457,80.15025499151275,77.77971759437864,87.3748323965142
206.2786177889888,80.19394846054706,78.9065402051068,87.39293572520327
206.6119634788331,79.31428959942981,78.69376396403958,86.29446494277238
206.94530916867734,79.07585339782555,79.45106748456364,86.36589816057008
207.27865485852163,78.16574064586953,79.32079946599383,85.25759284188936
207.61200054836587,78.25743875564616,79.70902694165197,84.935650258595
207.94534623821016,77.26351241946739,78.74053149302813,83.29539646228442
208.2786919280544,77.2029450085108,78.16533501281032,82.27403712663278
208.6120376178987,77.13403085884177,78.12993283375106,82.04395213598187
208.94538330774293,76.3913242381695,76.96221954063796,80.77892881962595
209.27872899758722,76.3004261093736,76.74691065069197,80.10160095029536
209.61207468743146,75.75820141082039,75.30087566401806,78.45006669648242
209.94542037727575,75.63779922583707,74.81896805397022,77.58938453346867
210.27876606712,75.73984388138558,75.05340356376543,77.46004776119992
210.61211175696428,74.84319007702267,74.35682395553238,76.65991761619411
210.94545744680852,74.46844489204707,74.54563373582214,77.05976110695354
211.2788031366528,73.524382102033,73.47211610620677,76.64496018138561
211.61214882649705,73.16768551950835,72.86802555766255,76.80712121612046
211.94549451634134,73.13443061499521,72.8601490702866,77.64478022300752
212.27884020618558,72.31857752412321,72.0892737791883,77.21753699424148
212.61218589602987,72.186832531078,72.09020333704201,77.49413579026825
212.9455315858741,72.59395536082705,72.6585381864127,78.07763677163369
213.2788772757184,72.32686476048991,72.26203700082002,77.23865677729437
213.61222296556264,72.9239555969012,72.26192158612491,77.04075983098873
213.94556865540693,72.46447222004198,71.50222424243145,75.74319120948466
214.27891434525117,72.58082696537632,71.46320275556408,75.08873024429197
214.61226003509546,71.6449986739198,70.38297166073149,73.81948971124771
214.9456057249397,71.51551057733103,70.06730846743102,73.05316137478184
215.278951414784,72.15605313874735,70.83636094533826,72.79667823337233
215.61229710462823,72.18479117430451,70.80991677164647,71.6601128411398
215.94564279447252,72.75618870204629,71.37548268929014,71.33536095342994
216.27898848431676,72.51153008124703,70.84543841632676,70.2319857550087
216.61233417416102,73.15407948804464,70.68748825169037,69.6419228098795
216.94567986400529,73.01975116922362,69.61910224086644,68.12400364637676
217.27902555384952,73.24743759417625,69.46821453319687,67.3127089549348
217.61237124369381,74.29096871856457,69.92435352312377,67.18333884860897
217.94571693353805,74.03048752236664,69.50400886520248,66.34785192208534
218.27906262338234,74.4437097072685,69.68639331211658,65.94839274573857
218.61240831322658,74.02066091529079,68.9691903996099,64.72490845554724
218.94575400307087,74.28962828263948,68.69130594431073,64.48059744630302
219.2790996929151,73.49480093481463,67.35839924672743,63.70179352534346
219.6124453827594,73.06933653597429,66.53641061344217,63.29220467282767
219.94579107260364,72.98857077872636,66.72809856784632,63.4108609652499
220.27913676244793,71.96608476916089,66.02864394831711,62.39788750906358
220.61248245229217,71.57155677145101,65.7465991957129,62.128843328838784
220.94582814213646,71.48910531665969,66.0579281187029,62.61691805658116
221.2791738319807,70.14595094003037,65.39749402486781,62.1757238452341
221.612519521825,69.19431170197758,65.50651560886908,62.46834355866186
221.94586521166923,68.84893364660446,66.39043467893883,62.92370670212955
222.27921090151352,67.59845825358019,66.59696610687973,62.52381345807528
222.61255659135776,67.0795508794669,67.19291335048038,62.766279304489615
222.94590228120205,67.21209767920503,68.4488390895005,63.36200694536182
223.2792479710463,66.97048602803717,68.64374603553892,63.18513626356313
223.61259366089058,67.3998907240221,68.97324668178662,63.59462498793385
223.94593935073482,68.28704652972645,69.61550923311923,64.59855734158
224.2792850405791,68.00185142295742,69.41103212480792,64.77206206104366
224.61263073042335,68.13402597197694,69.8998711816124,65.71007278202282
224.94597642026764,68.85952102303811,71.05522391898629,67.05505033464121
225.27932211011188,68.79391539005327,71.43563120744376,67.39223916935933
225.61266779995617,69.32318298201216,72.17799312945841,68.34211071717453
225.9460134898004,68.81684315720506,72.01587030948858,68.58865674865746
226.2793591796447,68.8966217467892,72.37385309433986,69.4496316671906
226.61270486948894,69.75394878564072,73.19200324320065,70.82861915663548
226.94605055933323,69.68382744219977,72.5488772443164,70.67356584333216
227.27939624917747,70.0783246732054,72.46249824233962,70.85550674117077
227.61274193902176,69.8654039143054,71.18971738210827,70.07481038278132
227.946087628866,70.12291588975431,70.88041767465786,69.9189999495842
228.2794333187103,70.90246506212813,71.35952479084881,70.34657912612887
228.61277900855453,70.79618964973048,70.90546531134868,69.93310108052286
228.94612469839882,71.0321915914926,70.87276921178794,70.29507036626579
229.27947038824306,71.9036919729172,71.54464861838815,71.0971535827203
229.61281607808735,71.93965499278218,71.33991167829284,70.73004482265786
229.94616176793159,72.62084307917995,71.53565013110924,70.70152098761545
230.27950745777582,72.39427062931755,70.36513054964482,69.87226621962968
230.61285314762011,73.2029724204059,69.92227298434857,69.66257328768283
230.94619883746435,74.5997890059093,70.21567123522168,70.21321999688057
231.27954452730864,74.83984247921084,69.38895774099409,69.9240912038095
231.61289021715288,75.78794715576578,69.19585347500285,70.14865744601795
231.94623590699717,75.72416237175132,67.85680859879925,69.33257664915399
232.2795815968414,76.07868021557398,67.18768791863616,69.23911372745309
232.6129272866857,77.1443425551203,67.30347021948982,69.70080371071766
232.94627297652994,77.36839338439857,66.43231940962515,69.4342859176482
233.27961866637423,78.1663465885015,66.34521046135956,70.07648285732303
233.61296435621847,77.81824315094008,65.3560263386289,69.71998383907611
233.94631004606276,77.60368275662002,64.81874321287276,69.94415444456199
234.279655735907,77.76477044559091,64.90881391828599,70.66754818729987
234.6130014257513,76.8397500139628,64.11285559527003,70.23374978334455
234.94634711559553,76.68281588465612,64.17706771770978,70.7923911211721
235.27969280543982,75.01536220859073,63.33932239380581,70.36296192789331
235.61303849528406,73.90105511207544,63.20775335274747,70.33116103420821
235.94638418512835,73.58083902828409,63.592802805597934,71.11095653564878
236.2797298749726,72.64227395990005,63.257831146681525,71.06039563681257
236.61307556481688,72.01150104369975,63.84090879559718,71.49405409310273
236.94642125466112,70.48843103361655,63.52019131230766,70.86270787190831
237.2797669445054,69.37575711797578,63.44749618972639,70.71027783395728
237.61311263434965,68.87794588222816,63.81295473826142,71.05234495905043
237.94645832419394,67.6875677826999,63.58212445101111,70.62105777660939
238.27980401403818,66.8694723644117,63.54832386405337,70.88133944819965
238.61314970388247,66.67655670201364,63.96616750527741,71.9955882846677
238.9464953937267,65.87463720742625,63.44602677801548,72.01814708911122
239.279841083571,65.7794053067552,63.678894723941035,72.86844502743612
239.61318677341524,64.88519660438237,63.161459783558215,72.49584318656645
239.94653246325953,64.573110849167,63.215726022018075,72.74528836246064
240.27987815310377,64.68159035897575,63.68475064861474,73.79811112960162
240.61322384294806,64.19528821214655,63.32400839490623,73.8226927186881
240.9465695327923,64.38283772631145,63.41813714654986,74.42367675969717
241.2799152226366,65.21454613589519,63.800919423290416,75.84962913716102
241.61326091248083,65.45098224431642,63.323717584032316,76.222054559773
241.94660660232512,66.01802914251577,63.63100655300662,77.4018937642689
242.27995229216936,67.3369659419429,64.48150800504382,79.45677962945246
242.61329798201365,67.64263882672394,64.43065533043357,79.9634165804382
242.94664367185788,68.12214158592019,64.94965166752021,80.58663763096389
243.27998936170218,67.80101639040056,64.65913000265797,79.87536602092648
243.61333505154641,67.82350464620174,64.68309455225412,79.32902806945444
243.94668074139065,68.35774922269806,65.33639929713269,79.53264074620357
244.28002643123494,68.00978421263405,65.07275645180582,78.89093833786536
244.61337212107918,68.00799430653484,65.38186078349027,78.90319562392071
244.94671781092347,67.31582847643662,64.88523025362453,77.84606219928195
245.2800635007677,67.16738938780767,64.89187047393202,77.27951104283946
245.613409190612,67.52548550149918,65.23246513948101,77.45196254965943
245.94675488045624,67.14951612970069,64.64376282344365,76.52426111347128
246.28010057030053,67.41748940587766,64.98967349652817,75.98780849793663
246.61344626014477,66.4763186244082,64.48677269489485,74.51203284789452
246.94679194998906,66.13155701469853,64.73976731742385,73.89385843220809
247.2801376398333,66.46817028743348,65.76942648576004,74.18635992699826
247.6134833296776,66.10544556748164,65.67207664319736,73.32938339561059
247.94682901952183,66.4221499166047,65.89240582384221,72.98736994046803
248.28017470936612,66.33432307074847,65.44304850071791,71.74843329238827
248.61352039921036,66.91454708037757,65.71956610555367,71.26406449314973
248.94686608905465,67.98154566429687,66.5692473188887,71.56103041855624
249.2802117788989,67.94051084362148,66.81410380958329,70.98428589938885
249.61355746874318,68.62489930714369,67.59213545658754,71.28010769033222
249.94690315858742,68.21619990976839,67.26981175761689,70.44341520259546
250.2802488484317,68.2124444131818,67.6253325629752,70.06423189992933
250.61359453827595,68.68527787856232,68.65961751301147,70.39318865461664
250.94694022812024,68.6129589279145,68.6283845793587,70.0031606347055
251.28028591796448,69.02585039908976,69.0248598026134,70.2485502404032
251.61363160780877,68.32299131485514,68.58066431906165,69.6241746395589
251.946977297653,68.35232049334027,68.51278253615514,69.94129249497365
252.2803229874973,69.1846618880603,69.02826585462033,71.1176712526374
252.61366867734154,69.15254128514191,68.41393258971294,70.91969462167941
252.94701436718583,69.45920329182516,68.46670529504904,71.190249690668
253.28036005703007,69.98800323348759,69.25918021407762,72.5161332084705
253.61370574687436,69.17230082771772,69.11903567924199,72.72095869421982
253.9470514367186,69.15677924901402,69.54411868197045,73.3400895140714
254.2803971265629,69.88115849626774,70.65606435206935,74.57789768204817
254.61374281640713,69.94999315242363,70.97966465350798,74.41382773737965
254.94708850625142,70.6702820291179,71.9746507355174,75.01399815657221
255.28043419609565,70.42516775144473,71.96295217548864,74.50045622170086
255.61377988593995,70.70648097605438,72.35602552062467,74.57554479165547
255.94712557578418,71.34394965103093,73.10182845942386,75.27612038347533
256.2804712656284,70.79752784640193,72.80682281208428,74.87362190329283
256.6138169554727,70.8890648555608,73.39541959890346,75.08870095199275
256.947162645317,70.28378961033536,72.85350916523993,74.2283101601511
257.28050833516124,70.27276028616923,73.22021191100892,74.39805823838424
257.6138540250055,71.4368735431023,74.29382437042621,75.0610199271229
257.9471997148498,71.75418303327703,74.81926108207668,74.77112282142757
258.28054540469407,72.81836354458387,76.03090792021173,75.16805431556644
258.6138910945383,72.89793230618963,76.29248572732483,74.75724196911258
258.94723678438254,73.80913070112251,77.24542611938273,75.05850287485949
259.28058247422683,75.28387732517979,78.9594419928722,75.98886247765702
259.6139281640711,75.82380984361805,79.74962791855201,76.35368233983937
259.94727385391536,76.85312874596522,81.79894331956588,77.53586279797837
260.2806195437596,77.01104195139361,83.02283346426877,77.71715327099785
260.6139652336039,77.80030742371224,84.8194777108876,78.79031698153665
260.9473109234482,77.87733003526616,85.78305789424363,78.81909115462439
261.2806566132924,78.22412828863884,87.30669818089615,79.7260784273637
261.61400230313666,77.5315719916278,87.8255449427431,79.62242064550298
261.94734799298095,77.52440243275682,88.89353196145504,80.21699940903838
262.28069368282524,76.62956590483375,88.9125747710707,80.1078178247702
262.6140393726695,76.54540266975047,89.19387305460589,80.60116886814504
262.9473850625137,76.9773315081638,89.89153136819138,81.83429648122785
263.280730752358,76.44031863939006,89.60682063205343,82.00530947588473
263.6140764422023,76.48199467136419,90.16066759235125,83.07843828854884
263.94742213204654,75.8834054425152,89.79514796355386,83.11812706132567
264.2807678218908,75.89978226244386,90.39961612890826,83.6073701126581
264.614113511735,75.23879291425648,89.98974779760758,83.21096893372045
264.9474592015793,75.23077746194367,90.37926791306656,83.52638082372854
265.2808048914236,74.29132088962774,89.51084393798368,83.17629601865814
265.61415058126784,73.66888684999768,89.64672760528093,84.0222327532814
265.9474962711121,72.19746979482449,88.84444043096401,83.84336281630533
266.28084196095637,71.49329108263912,89.13318204021348,84.49408375691931
266.61418765080066,70.30889597768527,88.18476241861057,84.33958926797139
266.9475333406449,70.10807681572598,87.76213435873446,84.61078406964805
267.28087903048913,69.60844772748167,86.33279278726637,83.55593487951418
267.6142247203334,69.88840116389296,85.62410424354697,82.87792533773411
267.9475704101777,69.3221256007454,83.9219686251094,80.77814916720368
268.28091610002195,69.33695507333898,82.70590491216224,79.89971666701192
268.6142617898662,70.22113661292742,82.52364851230752,79.40655670092978
268.9476074797105,70.40637250573026,81.62962689929489,77.77428326326333
269.2809531695548,71.07062608544561,81.29845619303036,77.1214010356029
269.614298859399,70.67458547007716,80.52365699286311,76.08755982805152
269.94764454924325,71.07973054031305,80.45497478733854,76.17865732010743
270.28099023908754,70.31306346604414,79.03725246841842,75.07525881417375
270.61433592893184,70.49395018583738,78.10479789114358,74.5433678959503
270.9476816187761,71.19261750707868,77.97488166087905,74.5836928579861
271.2810273086203,70.92494618386222,76.80717466829243,73.92725137253491
271.6143729984646,71.22337697388858,76.72276146642145,73.91772811539713
271.9477186883089,70.5251615314404,75.91761351132143,72.95996632142754
272.28106437815313,70.48766364812647,75.89917963727154,72.48595457008317
272.61441006799737,70.9097559200731,76.76107852632305,72.52982066860332
272.94775575784166,70.64531886977544,76.51966653113142,71.62124556602373
273.28110144768596,70.99075432080625,77.12898060502935,71.37452754852669
273.6144471375302,70.4973879630393,76.80915449104818,70.41476422448784
273.9477928273744,70.6496818059442,77.49346526687125,69.90563166362935
274.2811385172187,71.23293828797735,78.54374198573905,70.0061171098006
274.614484207063,70.78386247527703,78.46315136043377,69.19223511560439
274.94782989690725,70.51809479289695,78.95432958740112,68.76305228248371
275.2811755867515,70.54700695212232,80.2175896331013,68.9478134145724
275.6145212765958,69.54042874259353,80.36560275176633,68.29878417328109
275.9478669664401,69.20894682130643,81.29233015715643,68.5651855909494
276.2812126562843,68.39001362113991,81.225757393997,67.85596969585659
276.61455834612855,68.08441876018435,81.54924209118111,67.77788111464817
276.94790403597284,68.16577440759204,82.76573014004182,68.38550460417605
277.2812497258171,67.39716027358449,82.49190570824288,67.90996986842327
277.61459541566137,67.29857890556809,82.39321942037236,68.42573198054892
277.9479411055056,67.54884159994963,82.40506163657676,70.10261020693764
278.28128679534984,66.84416926335243,81.30961016611663,70.65139611157323
278.61463248519414,66.43355746747106,80.71030885817113,71.54843706539955
278.94797817503843,65.09302755395967,79.46796829917612,71.27286721783295
279.28132386488267,64.40065274888588,79.25964441578576,72.17041067619151
279.6146695547269,64.27386111361798,79.82662409520074,73.62122143230508
279.9480152445712,63.57233286689957,79.43602527764415,73.93866162746824
280.2813609344155,63.16197869789597,79.50655764644324,74.4938105238436
280.6147066242597,61.86278882360719,78.26726846929384,74.15163831582394
280.94805231410396,61.26320991797624,77.94075571274894,74.0342602120655
281.28139800394825,60.8549470127785,78.21973936689604,74.12981192792174
281.61474369379255,59.65807736744482,77.40719599385496,72.83783356697916
281.9480893836368,59.19569722954526,77.01671118771223,72.45388251054507
282.281435073481,58.3536806281624,75.96545640850177,71.07926761050597
282.6147807633253,58.05940096438813,75.42129717338982,70.38482915141269
282.9481264531696,57.80839838228092,75.46208600749111,69.96462955535787
283.28147214301384,56.81210936834468,74.81232031771799,68.54456837611212
283.6148178328581,56.276053793563285,74.74362330180494,67.54810730093175
283.9481635227024,55.34781398138599,73.65092544976096,65.7201233759056
284.28150921254667,54.771204145667035,72.80362534684147,64.71991747759819
284.6148549023909,54.478110208979366,72.66188765203147,64.39919173854852
284.94820059223514,53.456947698956476,71.72906557598148,63.5998536820975
285.28154628207943,52.870951600849395,71.3448483355944,63.2710697594509
285.6148919719237,52.85250801178737,71.37984510438824,63.236982789962624
285.94823766176796,53.296842310302964,71.79711363383491,63.662991460046314
286.2815833516122,53.56173454277608,71.43250517665757,62.763187554091544
286.6149290414565,54.33838045360778,71.77127484688482,62.40111586690957
286.9482747313008,55.64431831352325,72.70676677029509,62.565852469918845
287.281620421145,56.1973162344339,72.51296530503092,62.1067280504844
287.61496611098926,57.2346319650856,72.51717241600097,62.12959227247858
287.94831180083355,58.87050726645039,73.18076852177077,62.50594664660261
288.28165749067784,59.70952941332435,73.30749456724476,61.92178787916038
288.6150031805221,60.730860023635856,74.05242149738945,61.84733264654027
288.9483488703663,60.87099562645173,73.77131129414656,60.90277925376491
289.2816945602106,61.257101933178724,73.75958403561759,60.30661830449008
289.6150402500549,62.2407931485555,74.26400829372089,60.128977072112605
289.94838593989914,62.24613073683466,73.95057072218734,59.256566539483124
290.2817316297434,62.66806790812022,74.47692940754263,59.31381057054459
290.61507731958767,63.56390453092917,75.20558874009905,60.01822776245945
290.9484230094319,63.70481915195411,74.45910785613381,59.857004660527316
291.2817686992762,64.32405727868802,74.04588765156369,60.3173721091773
291.61511438912044,64.00966212943929,72.61978140057596,59.785243091842794
291.9484600789647,64.2635243839378,71.86881798573386,59.811950046491695
292.28180576880897,64.94814634775835,71.45659395983976,60.26329686952429
292.61515145865326,64.42930547334281,70.60938890936941,59.92148588135274
292.9484971484975,63.931514162817535,70.33949596067669,59.944727340455465
293.28184283834173,64.18925535544905,70.49282377874121,60.45303513030437
293.615188528186,63.835927810727526,69.6715315499814,60.19397630094971
293.9485342180303,64.12383633063003,69.25653208843961,60.2788930949322
294.28187990787455,64.96195243431475,69.39661032473275,60.662772963018305
294.6152255977188,64.80930900115868,68.86411890408938,60.097245713393455
294.9485712875631,64.83923956933954,68.74301547023616,60.22755018466974
295.2819169774074,65.12655252525835,69.12060550388826,61.13975969571414
295.6152626672516,64.7799335293303,68.410854879608,61.40953515386026
295.94860835709585,64.9158498343484,68.0587297008352,62.299214801295705
296.28195404694014,65.3725782967206,68.1719657282128,63.381137441709555
296.61529973678444,64.84079847322363,67.52208877355609,63.66828180767413
296.9486454266287,64.95674078977439,67.54994960774171,64.3511080662149
297.2819911164729,65.6179770405577,68.04345049558034,65.31272399663914
297.6153368063172,65.07508826924752,67.6122624643076,65.1039596889491
297.9486824961615,65.04383309969334,67.82947144247457,65.44875550352943
298.28202818600573,65.41765004070191,68.58871444272776,66.30626308038183
298.61537387584997,64.95883634098384,67.97351642485184,66.14810370459756
298.94871956569426,64.75800450101252,67.78063300706806,66.27042082905984
299.28206525553855,63.74990051081787,66.73920456983039,65.61248074249639
299.6154109453828,63.16878780179425,66.22687454688817,65.83721804194236
299.948756635227,63.14265814366054,66.22514381071049,66.56285900470279
300.2821023250713,62.24722545399519,65.08399046488424,66.16524577733533
300.6154480149156,62.19497309935403,64.60685083918806,66.45561667946849
300.94879370475985,62.74487423760065,64.7869395555851,67.15890844896185
301.2821393946041,62.527984140799916,63.890347298612824,66.83199528779691
301.6154850844484,62.73966618416166,63.589315725346,67.33918139691279
301.9488307742927,63.66969708567608,63.90127472610071,68.81956808404806
302.2821764641369,63.60503723223337,63.14696827641289,69.07485571214886
302.61552215398115,64.01443819981397,63.05309279719721,69.80011327265845
302.94886784382544,64.84760246123149,63.72308108266803,70.91048050538701
303.28221353366973,64.87664340064453,63.55160524252665,70.79658011445164
303.61555922351397,65.2056273765594,63.63517401433888,71.13915767737002
303.9489049133582,64.67495236521619,62.805364373101604,70.40104362958593
304.2822506032025,64.60570304952095,62.5852771191445,70.21419721026517
304.61559629304674,65.19944783642356,62.939586780973826,70.74563127188401
304.94894198289103,64.85324773690985,62.42769130922618,70.49469687693599
305.28228767273527,65.06687662962538,62.54704285867247,70.53532886130404
305.6156333625795,66.1169844145201,62.81234781438598,70.91584635276688
305.9489790524238,66.431773583783,62.17702666049447,70.18248713734081
306.2823247422681,67.0332202998193,62.10926073433943,69.92934273456784
306.6156704321123,67.86825544743638,62.52646468841161,70.20488006622713
306.94901612195656,67.67195713043817,62.160953093013006,69.34525199208967
307.28236181180085,67.66214533063048,62.532732087375685,68.94148658673616
307.61570750164515,67.86590705275627,63.40659486330138,69.50181564769683
307.9490531914894,67.11097433814012,63.29527571615187,69.20234412290867
308.2823988813336,66.71001213382932,63.29601372177904,69.71263747455359
308.6157445711779,67.11938147868625,63.518847567004244,70.61163682434612
308.9490902610222,66.73855544850812,62.94634366061986,70.21735624048955
309.28243595086644,66.77109910516674,62.86765295289821,70.54735727264753
309.6157816407107,65.90076532585458,62.21199005913688,70.19760392453301
309.949127330555,65.54808689084571,61.825011941845716,70.24578510220664
310.28247302039927,65.9689252623219,62.0503417944157,70.88987919078932
310.6158187102435,65.65006203397506,61.36625541923734,70.4189250692274
310.94916440008774,65.90072048078486,61.19319862658219,70.52293961458379
311.28251008993203,66.74052789985727,61.60341945921342,71.27986278454266
311.6158557797763,66.9480293765978,61.191880932706994,70.9489864397917
311.94920146962056,67.5295456711056,61.34674719131358,71.3812822325453
312.2825471594648,67.41743860997886,60.573167553843234,70.95992181110459
312.6158928493091,68.03645267854104,60.586325661576026,71.12339340270769
312.9492385391534,68.88214543156745,61.09789384703903,72.01625349383728
313.2825842289976,69.02539040282886,60.97093387544896,71.68032220355622
313.61592991884186,69.69608510407761,61.24764848670881,71.81979001697536
313.94927560868615,69.32608413873142,60.5578336008532,71.02747631894317
314.28262129853044,69.55214077498955,60.42946351206791,70.96218409583548
314.6159669883747,70.2084481463588,60.59748713354675,71.68601150860856
314.9493126782189,70.13176890315901,59.72838055787277,71.40896324313034
315.2826583680632,70.44088594001082,59.51052757336806,71.58343533764705
315.6160040579075,69.83634752248456,58.88010342801321,70.9375988574232
315.94934974775174,70.14002542678408,59.087883496828326,70.97682667520681
316.282695437596,70.78026102698628,59.83657325646825,71.17344763165727
316.61604112744027,70.60457741550013,59.97431775662347,70.43429178430654
316.94938681728456,70.7392688960218,60.75666558063247,70.06211884976966
317.2827325071288,71.46683020539209,62.13407271491748,70.24767045453295
317.61607819697304,71.20038699856178,62.69590992416812,69.42062325817876
317.9494238868173,70.90873184020695,63.88280068426607,69.20711830447848
318.28276957666156,70.78302402266365,65.20202195030964,69.91489803109395
318.61611526650586,70.00390055859278,65.36169990961494,69.5822840664885
318.9494609563501,70.05574066602858,66.02323648600981,69.72876151084958
319.28280664619433,69.10189783604442,65.63852623461052,68.74598672049399
319.6161523360386,68.64567122173838,65.9055480423467,68.57242494951015
319.9494980258829,69.17266893438114,66.63948235581586,68.97093024695506
320.28284371572715,68.8292585227704,66.37741681422467,68.45431755196392
320.6161894055714,69.34579759476726,66.75937461794614,68.5030980308734
320.9495350954157,68.9902237406726,66.17009421489004,67.5108503979108
321.28288078526,69.14197810024784,66.30554976295,67.00147378197697
321.6162264751042,69.82497132356934,67.04622486875087,67.18744855301645
321.94957216494845,69.72376803485967,67.00367466544238,66.7038926636256
322.28291785479274,69.92805130108859,67.12532976073861,66.86448554966599
322.61626354463704,70.57052962637992,67.91840567965171,67.83124035388005
322.9496092344813,70.11168110378729,68.0270570744299,67.85916852823362
323.2829549243255,70.37835245341797,68.60552325701947,68.2827478748827
323.6163006141698,69.79725013472722,68.65064191450728,67.60614691107105
323.9496463040141,69.4958996527489,69.10160533998507,67.64872695499552
324.28299199385833,69.2967071428641,70.22986351705387,68.2903100525673
324.61633768370257,68.29111288454554,70.355219778221,67.75192872707136
324.94968337354686,67.55765268990919,70.81129226692086,67.75299420131222
325.28302906339115,67.33891255796331,71.53435229729367,68.15793230141314
325.6163747532354,66.2308335583929,70.99328480122772,67.65804271459983
325.9497204430796,66.07044390109692,70.93690367868146,67.64906283582117
326.2830661329239,64.98651027601919,69.73399776246977,66.81004691809422
326.6164118227682,64.40423476466775,69.34148364312482,66.5502459997682
326.94975751261245,64.07760422158718,69.62799471324016,66.83179821108854
327.2831032024567,63.2952533652428,68.74315134792454,66.15464478834235
327.616448892301,63.15866888840357,68.25801741418016,65.9470856883374
327.9497945821453,63.348806472018154,68.3069555247462,66.21502305499777
328.2831402719895,62.694180216068,67.51053075146874,65.30538773744678
328.61648596183375,62.438322873819544,67.31447981310802,65.19163906618716
328.94983165167804,62.80486260618134,67.5318708593121,65.62859110150298
329.28317734152233,62.32810644181682,66.59270882379684,65.1321982925363
329.61652303136657,62.32121353105118,66.05581362263413,65.27643434677935
329.9498687212108,62.90899499249824,65.75497669649913,65.89314492931555
330.2832144110551,62.4540004527792,64.75094040720091,65.3537399913686
330.6165601008994,62.635601933200185,64.46580469927855,65.10190659247425
330.9499057907436,63.30267311494261,64.54245162749598,65.23480604548105
331.28325148058786,63.001973372869315,63.50395618297157,64.55983109709454
331.6165971704321,62.90367781105238,63.19342954525638,64.1915761234754
331.9499428602764,61.96007853380671,62.034223369728025,62.72676259115411
332.2832885501207,61.44732503914068,61.43070417536847,61.54902616455239
332.6166342399649,61.49727237183358,61.407775030425626,61.02483101805782
332.94997992980916,60.94948501123823,60.694443130742954,59.9450085530325
333.28332561965345,60.769216552734214,60.30342419449281,59.42529299455637
333.61667130949775,61.3128642945517,60.276639132632255,59.36408893043605
333.950016999342,61.05787094982045,59.38928822640459,58.6394269902798
334.2833626891862,61.02089051454623,59.23426153373561,58.48386049545784
334.6167083790305,61.513123021102714,59.52473834209782,58.977237547912175
334.9500540688748,60.99909716235611,58.53571156673792,58.57738633859977
335.28339975871904,60.99308314759922,57.91259201672083,58.632250170194894
335.6167454485633,61.43309626747395,57.91910288946455,59.29177119915879
335.9500911384076,61.25494456526952,57.14283025635408,59.20825083799846
336.28343682825187,61.43263477098622,56.82660102837905,59.49689836518551
336.6167825180961,62.32792574164796,57.000114022578245,60.37808957471504
336.95012820794034,62.456134022821544,56.457880669577584,60.53658944029979
337.28347389778463,62.79196274600182,56.43031301225265,61.0496405738935
337.6168195876289,62.4987962856964,56.00064465790806,60.74228063500017
337.95016527747316,62.92215509234586,56.086533108034686,60.8908036185398
338.2835109673174,63.57117791035479,56.7809051405911,61.395536886695766
338.6168566571617,63.22026455086779,56.91210296844968,61.24785560931897
338.950202347006,63.145154067709825,57.23615184853379,61.449931876846335
339.2835480368502,63.357510910165956,58.0127508070274,62.27142421333383
339.61689372669446,62.968273652662326,57.89657607709848,62.38468010155565
339.95023941653875,62.76771417220995,58.34623460210027,62.777878449064644
340.28358510638304,63.16508228534064,59.25663646385972,63.6439159828168
340.6169307962273,62.764222101552896,59.40587350592717,63.41170128763488
340.9502764860715,62.8687906663661,59.703451744099816,63.469084484116316
341.2836221759158,62.115736031760164,59.25337791758668,62.84850660469289
341.6169678657601,61.912367014700635,59.53493730487448,63.11698870353802
341.95031355560434,61.91609057153771,60.249316261760626,63.645656053513264
342.2836592454486,60.819742607653836,60.20405648411884,63.158110099235834
342.61700493529287,60.070081887332506,60.93129940954086,63.36419344025106
342.95035062513716,58.69953447094324,60.81889263035349,62.71055651976227
343.2836963149814,57.62782427943276,61.252160008751495,62.190943859854244
343.61704200482563,57.0378610126857,62.576741552032935,62.05501554067241
343.9503876946699,55.61242429783687,63.077616679500615,61.2759460517878
344.2837333845142,54.5328499444188,63.72347171844672,61.197346596607225
344.61707907435846,54.01975999421909,64.68102672921577,61.651438550456625
344.9504247642027,53.07297989634236,64.55973856595224,61.29148946370251
345.28377045404693,52.725965755597635,65.10402405664846,61.425097318268385
345.6171161438912,53.04079124125218,66.02649597778014,61.7107563546206
345.9504618337355,52.91304349915274,66.07541461229943,61.06000744341745
346.28380752357975,53.11251867712389,66.72796355918652,61.01217887224324
346.617153213424,53.81831168243784,67.75103626523236,61.65028461374346
346.9504989032683,53.798024628854535,67.68588296678855,61.6653283035381
347.2838445931126,54.14435452450958,68.10531923812573,62.42223245799167
347.6171902829568,55.01050490047863,68.94688373758734,63.36025365672564
347.95053597280105,55.29217917302844,68.55136751218055,63.549481629149255
348.28388166264534,56.20255211259651,69.02683842948119,64.0660679224864
348.61722735248964,57.39574517980608,69.76742555147636,64.98621673573638
348.9505730423339,57.528830913716895,69.29275077312468,65.02706343874002
349.2839187321781,58.08911172091962,69.43505337675066,65.77395877448416
349.6172644220224,58.01175548536007,68.81049879336932,65.42982486791698
349.9506101118667,58.49508847841888,69.16825485605393,65.78454219240697
350.28395580171093,59.77980003339649,70.13899155810167,66.78856619758163
350.61730149155517,60.286567705205506,70.10826596839689,67.16980106295331
350.95064718139946,61.21392316365174,70.4667271528961,68.12551152692394
351.28399287124375,61.25487220114778,69.81110144116003,68.15259358419979
351.617338561088,61.92957868588619,69.5886899218917,68.46008426470763
351.9506842509322,63.046789288870286,70.00940717938366,69.11264437777878
352.2840299407765,63.28730394115305,69.55142146199911,68.67618435933672
352.6173756306208,63.953159930635266,69.63456257211445,68.74454186977958
352.95072132046505,64.84207227791126,70.20945388681822,69.3859531458678
353.2840670103093,65.00391268201307,69.50444948662825,68.90761412049307
353.6174127001536,65.34521793860772,69.34402569626374,68.9841053896133
353.9507583899979,64.71511966331313,67.91214485911232,68.34920418428948
354.2841040798421,64.60546499058594,66.59692675392033,68.2925175173968
354.61744976968635,65.08851614337318,65.93515880325499,68.99579977344557
354.95079545953064,64.56290459595714,64.41756921260037,68.66079283969091
355.28414114937493,64.56237266520024,63.63611831500752,68.6374685937929
355.61748683921917,65.03705397593694,63.37007562399996,69.06727505196287
355.9508325290634,64.58459542733117,62.31077464756328,68.5130135465203
356.2841782189077,64.69183123986689,62.167832987243855,68.96983675344639
356.617523908752,65.7393156213229,62.69994482898536,69.8054092969539
356.9508695985962,66.36687695970868,62.448561848200384,69.68161705152053
357.28421528844046,67.45210304604963,62.4803554599922,69.81055907005786
357.61756097828476,68.96885421289271,63.197820978700676,70.58468957908798
357.95090666812905,69.51788333421054,63.33049212174779,70.2034376153572
358.2842523579733,70.77317166673615,63.8736545429215,70.51226216839251
358.6175980478175,70.78686670387287,63.41568822913828,69.89023401770027
358.95094373766176,71.2843554251912,63.66551704459024,69.82022559955816
359.28428942750605,72.23770184536761,64.48850834671727,70.56490790883755
359.61763511735035,72.37711173460403,64.62004354159683,70.733380188312
359.9509808071946,72.84556138580925,65.13766858882765,71.61828622641745
360.2843264970388,72.35843910383704,64.90004604079967,71.39661485245463
360.6176721868831,72.4267707619066,64.82517051860617,71.70657212985223
360.9510178767274,72.87422045988887,65.31715774302106,72.83905591167465
361.28436356657164,72.72526544240651,64.87957832241233,72.77908499222832
361.6177092564159,73.57077074097225,65.24032238598586,73.2237242201914
361.9510549462602,73.49557078525974,64.78269771563342,72.74261814657099
362.28440063610446,74.01780760726132,64.9057012155,72.91113163377186
362.6177463259487,74.8006139458493,65.21176927811491,73.57606753650342
362.95109201579294,74.55073307746046,64.90617434540187,73.1529457138819
363.28443770563723,74.93212878410256,65.26673811839919,73.25853653638475
363.6177833954815,74.56605586748368,65.29891566630202,72.13254495361912
363.95112908532576,74.41788094549047,65.98715523952634,71.86289852933939
364.28447477517,74.53261488466836,67.12133545769655,72.11911134070066
364.6178204650143,73.88087852838942,67.61401629785942,71.66110432022373
364.9511661548586,73.97385217899205,68.77832242848368,71.49315420419643
365.2845118447028,73.20679337316874,69.00869091802917,70.20839040166337
365.61785753454706,73.12050192297887,69.89421546393311,69.69746089821365
365.95120322439135,73.6406453172766,71.25463135616069,69.67659907899083
366.28454891423564,73.7045008907991,71.52121068098305,68.90616599431343
366.6178946040799,74.23023850127917,72.44799992498925,68.94552936480146
366.9512402939241,73.46577574240834,72.44967064911215,68.11096664912161
367.2845859837684,73.28946960983501,72.85797837662068,67.84122852325592
367.6179316736127,73.83228470223283,73.90546654320391,68.27641531536548
367.95127736345694,73.29924418028499,73.83404994399449,67.44636294744521
368.2846230533012,73.67133724262978,74.36488741762008,67.20045478290501
368.61796874314547,72.80074653296636,73.55036211672258,66.03278050440966
368.95131443298976,72.6214727305796,73.70659267284348,65.69701164858337
369.284660122834,72.96254858977144,74.56127108833964,65.87578193172735
369.61800581267823,72.36143586393307,74.19776418831809,64.99496527330325
369.9513515025225,72.11712859460398,74.63968435230245,64.76974630834441
370.2846971923668,72.15767221646558,75.81120753707728,65.65061333725164
370.61804288221106,71.42122932482746,75.9320767739748,66.08489928777003
370.9513885720553,71.39420711250101,76.32925638893734,67.31933592891546
371.2847342618996,70.50405793386213,75.70228063093087,68.12327451070624
371.6180799517439,70.29798892432332,75.44991811788738,69.48782393922008
371.9514256415881,70.89918208205171,76.0471886582983,71.12947557450082
372.28477133143235,70.8111779235939,75.70220063529817,71.48367990459421
372.6181170212766,70.71538250813204,75.217068007626,72.39046031781311
372.9514627111209,71.21697983817593,75.47533538487086,74.29800207678707
373.2848084009652,70.93251488017457,74.87090696380432,74.84803456232237
373.6181540908094,70.8557000326565,74.75880181933987,75.69796654705702
373.95149978065365,69.99720334082997,73.70513664763249,75.5208893290441
374.28484547049794,69.93945822672147,72.85814308289686,75.68718611324213
374.61819116034223,70.65432614118242,72.33820467914038,76.1596413474778
374.95153685018647,70.36477512637668,71.04088190883307,75.66962908917567
375.2848825400307,70.87829587035404,70.3970086662805,75.84933597537525
375.618228229875,70.10840246483805,69.00272803639297,74.86620648812021
375.9515739197193,70.05425040777446,68.33638599488638,74.58571200468438
376.28491960956353,68.90645907434578,66.91046906705571,73.63027710841402
376.61826529940777,68.58534782929102,66.07721869999833,73.02984382031823
376.95161098925206,68.78523759499342,66.17763684361285,73.04554461327989
377.28495667909635,68.22486962056901,65.59858770620097,72.1479137539606
377.6183023689406,68.37529999339688,65.40341961568993,71.82820184737184
377.9516480587848,69.0392081819283,65.761890506799,72.0920371983921
378.2849937486291,68.6363582775014,65.1787863165285,71.17951451788312
378.6183394384734,68.83791465008561,65.00333120401234,70.7505944224025
378.95168512831765,69.5306520104241,65.63013695607023,70.586742698957
379.2850308181619,69.36206595300777,65.51144724026193,69.44344643560862
379.6183765080062,69.38490033300435,65.81558488852728,68.91594693791397
379.9517221978505,68.32097788517201,65.28688746282081,67.56283678002515
380.2850678876947,67.93066382413939,65.39031053524863,66.97495943903186
380.61841357753894,68.09141658434636,66.05352354842793,66.97107401774316
380.95175926738324,67.57770447845584,65.19489112125989,66.27659442264536
381.28510495722753,67.42993071057387,64.7950699485435,66.42951676645255
381.61845064707177,67.93663309716244,64.41877793710404,67.08437145193432
381.951796336916,67.74018939016496,63.171484798054294,66.50574422423196
382.2851420267603,68.12652542398249,62.90534656518275,66.62002167163065
382.6184877166046,67.2791167361696,62.2201043284509,66.1020130544127
382.9518334064488,66.72788566693656,62.050274743095514,65.96622685413418
383.28517909629306,66.96215266356688,62.500527981337015,66.4906925203532
383.61852478613736,66.3023975001795,61.94748083156646,66.21413829894108
383.95187047598165,66.27580461157704,61.69862897203756,66.31311545154716
384.2852161658259,66.43317257295993,62.09714793654009,66.84129806673543
384.6185618556701,65.51229944064046,61.835386787220806,66.22190265196433
384.9519075455144,65.1517349596334,62.10943659417681,66.40504091487173
385.2852532353587,63.939162969838556,61.546780894778685,65.87340161975966
385.61859892520295,63.18613091656204,61.50818214746319,66.09023752636494
385.9519446150472,63.13103676246208,62.092196536457635,66.59787009187595
386.2852903048914,62.349602863212596,61.84063818589277,65.9891563300145
386.6186359947357,62.371963417582734,61.93345763808288,66.02331735670428
386.95198168458,61.65006494682342,61.029714682716126,65.23488686461334
387.28532737442424,61.33872478848576,60.47433746739832,64.7894694562745
387.6186730642685,61.60524329930127,59.99027098537371,65.22579695317258
387.95201875411277,61.239847539597854,58.40345169029928,64.83815836637677
388.28536444395706,61.45668441457876,57.274537813757426,64.89711149344984
388.6187101338013,61.95034729623854,56.64163318171227,65.54075572212146
388.95205582364554,61.76622244587527,55.3113005977847,65.14296376306396
389.28540151348983,62.019620002195104,54.36961159113043,65.43024306710745
389.6187472033341,62.40812686519804,53.82532647737835,66.34998421175867
389.95209289317836,61.95505441559784,52.546308795978895,66.4533829118706
390.2854385830226,62.063774313355054,51.90435971438299,66.94632730183115
390.6187842728669,62.60921617846978,51.95544581494475,67.73347504614371
390.9521299627112,62.18064594105575,51.450009328999386,67.44064167047199
391.2854756525554,62.338959056505125,51.452592780611326,67.8331450237432
391.61882134239966,61.18820582151822,51.031285527983805,67.29946568170894
391.95216703224395,60.48117864516873,51.07801164684375,67.40259704418038
392.28551272208824,60.56407925103077,51.489575082338376,67.89932074000515
392.6188584119325,59.92876543366294,51.3702863027616,67.32198606057113
392.9522041017767,59.86091181132382,51.522306685080714,67.15444258324422
393.285549791621,60.27863476806633,52.20433963081059,67.7937568786738
393.6188954814653,60.007311753887286,52.129197924859994,67.71155861675267
393.95224117130954,60.444487793525376,52.45847746623998,68.28167914410608
394.2855868611538,61.49920330738197,53.058134862940356,69.32659255945819
394.61893255099807,61.54438763448659,52.815789683281395,69.60622094753712
394.95227824084236,61.97438172738647,53.16865033380777,70.59274950297181
395.2856239306866,62.82917821592289,53.81476881800907,71.85480492935324
395.61896962053083,62.76030851279598,53.75777213058148,71.94017643813326
395.9523153103751,63.020598870020265,54.350383470927184,72.35679368880965
396.2856610002194,62.135634246255435,54.102342086130655,71.42437925749003
396.61900669006366,61.693881016908605,54.482331202565575,70.96151437177286
396.9523523799079,61.630106717787825,55.171688781597766,70.79826996204281
397.2856980697522,60.811694094591296,55.357260953233784,69.4543378282393
397.6190437595965,60.447112262069545,55.629926056066274,68.58285909334698
397.9523894494407,60.62014606908889,56.3159166910433,68.32499339725842
398.28573513928495,60.179006178557415,56.71937434029152,66.93460896949723
398.61908082912925,60.12333220473373,57.63989418822084,66.27721534700268
398.9524265189735,60.58130140029373,59.19367725741107,66.30304498613103
399.2857722088178,60.348118009103274,60.0545203442291,65.38807042404544
399.619117898662,60.88120573826118,61.112345192075814,65.19789838833283
399.95246358850625,61.85862884317514,62.3465953172282,65.37545596527266
400.28580927835054,62.11010448319577,62.414750579186126,64.86852281554916
400.61915496819483,62.72456596637285,62.77399283246821,65.1781091811066
400.95250065803907,63.59701508049745,63.47888980864257,65.86240197479793
401.2858463478833,63.47732266419837,63.51923233430295,65.345109969241
401.6191920377276,63.91144884225834,64.11539569257796,65.38160522165334
401.9525377275719,64.85306111567166,65.27868404890695,65.8900513529291
402.28588341741613,64.85906142809596,65.61116405349561,65.12206653473376
402.61922910726037,65.43167721232984,66.22074284145833,64.62443146725772
402.95257479710466,66.4134452925834,67.26118190940737,64.92089098182572
403.28592048694895,66.50007880467183,67.06895211432374,64.23664792556913
403.6192661767932,67.06303720269563,67.30054038683367,63.975636978446914
403.9526118666374,66.8729214418944,66.7474808563026,62.760963053143556
404.2859575564817,67.25474606930614,66.65781256138081,62.27756913868025
404.619303246326,68.28720030006038,67.09156117549409,62.374434778704455
404.95264893617025,68.38259084371592,66.62619058366313,61.38733088837503
405.2859946260145,68.85301123434826,66.41817645358748,60.678259624421955
405.6193403158588,69.79712625783318,66.46750882412051,60.427679346019985
405.9526860057031,69.63030152428152,65.76524439454415,59.27741837277605
406.2860316955473,69.88045308305358,65.68795862857891,58.54571555639511
406.61937738539154,69.05775523553793,64.65001155230918,57.10277243785096
406.95272307523584,68.30254523898122,64.29362292848234,56.30806943647401
407.28606876508013,68.26014468039848,64.4941677525376,56.1393092777137
407.61941445492437,67.24430008093886,63.738691243675504,55.302697623967035
407.9527601447686,66.75187515019701,63.824833579777874,54.97491704090334
408.2861058346129,66.93109400577784,64.25355252149042,55.32420948618755
408.6194515244572,66.16932281257058,63.817016126613204,55.0778947212389
408.9527972143014,66.09461285458852,63.732418769220075,55.52357825047548
409.28614290414566,66.90952782257091,64.05995958904487,56.547292412669634
409.61948859398996,67.01121152242155,63.572900895130275,57.03885727601609
409.95283428383425,67.76950517890798,63.67965438677794,58.12154285065811
410.2861799736785,68.7145785474772,64.53761383156915,59.784470093890164
410.6195256635227,68.67635966737521,64.71170202340544,60.843091407227966
410.952871353367,68.9051684524868,65.62918236680022,62.54343167470773
411.2862170432113,69.5594630663003,66.95096466051828,64.62296269752456
411.61956273305555,69.59683265966633,67.3425329931787,65.86282027628123
411.9529084228998,70.17289171241208,68.17823756494884,67.55427840460169
412.2862541127441,69.69841854262387,67.8919057463838,68.24566333624118
412.6195998025883,69.77789274458205,67.70383359284975,68.91064053009384
412.9529454924326,70.35171385323108,68.1069772597827,70.05036429700012
413.28629118227684,70.19908457175025,67.7100273529985,70.12562060737595
413.6196368721211,70.63416024030661,67.98963556370852,70.81007746871484
413.95298256196537,70.1978003468402,67.31452752936563,70.53455668504601
414.28632825180966,70.30054005037705,67.45049558884172,71.3771481656009
414.6196739416539,70.84179214402958,67.92382381840481,72.79488992969166
414.95301963149814,70.766441048786,67.51946511889341,73.30492059065584
415.28636532134243,71.1846561529161,68.07954964745777,73.75954274781277
415.6197110111867,70.63018348562338,67.68975326764205,73.07066711567929
415.95305670103096,70.8388930042313,67.92509742132485,72.87815082256523
416.2864023908752,71.6557246521121,68.83601079375467,73.05688723670224
416.6197480807195,71.51829168160631,68.881052023407,72.29404952276384
416.9530937705638,72.11666342123048,69.5633693209725,72.17435382385071
417.286439460408,73.56729977456715,70.99253560996885,72.65043213632464
417.61978515025226,73.94374641359003,71.55771626358137,72.01934492874342
417.95313084009655,74.97434071374681,72.87409173579479,72.16196997669464
418.28647652994084,75.07120918298922,73.02565005156875,71.39014076348899
418.6198222197851,75.63311428673289,73.94827599089345,71.57417675208201
418.9531679096293,74.78640896039535,73.80677643571968,70.87494008013311
419.2865135994736,74.6884431041461,74.06581355211544,71.13931859289761
419.6198592893179,75.27466525187177,74.57289020879145,72.29017797731518
419.95320497916214,75.09490380762213,74.2760540246586,72.66230784645668
420.2865506690064,75.74826414934564,74.53231294928723,73.43511596787418
420.61989635885067,75.40677875748217,73.33138212659394,73.14878292220658
420.95324204869496,75.81108361341725,72.67919890491058,73.20636360712729
421.2865877385392,76.71151932049251,72.88282784073724,73.90834619308751
421.61993342838343,76.44557897057805,72.09309221888856,73.50768619794626
421.9532791182277,76.61857756777643,72.13672223054441,73.702577785104
422.286624808072,75.47081575500891,71.45098419142738,73.09763826178286
422.61997049791626,74.98599300334502,71.3392381348817,73.11654061969222
422.9533161877605,75.39058183259303,71.9883878860681,74.09462263159992
423.2866618776048,74.97086610059667,72.10473095050278,74.38143076355178
423.6200075674491,75.25165539159613,72.46523656756526,75.08481815484917
423.9533532572933,74.56481807456629,71.868562937108,74.90897250421918
424.28669894713755,74.39328383771414,72.11700901367008,74.81121344008382
424.62004463698185,73.56155976258825,71.26117622327033,73.83471851969018
424.95339032682614,73.55809544223905,70.89440914114682,73.95802920413355
425.2867360166704,73.93947081812051,71.32855550858895,74.89814531021598
425.6200817065146,73.45004796798017,71.01299270675153,74.78951099619105
425.9534273963589,73.84376603194491,71.30121140807901,75.58617382233545
426.28677308620314,73.29646003615912,70.6962388419436,75.30624674670541
426.62011877604743,73.7380579596289,70.70246742305886,75.85353875736547
426.95346446589167,73.147003690842,70.04970344939161,75.47782157614563
427.2868101557359,73.42880324630313,70.14889347980109,75.57657496414248
427.6201558455802,74.17774375041982,70.86453544388563,76.3135373135978
427.9535015354245,74.07733678083673,70.79847886677493,75.91918508013212
428.28684722526873,74.75378720717501,71.55139799530433,76.18691927032249
428.62019291511297,74.4484816844851,71.49444956114668,75.42781720405165
428.95353860495726,75.14060235954446,72.06466412931196,75.27742749739187
429.28688429480155,74.89920567246332,71.72213440887379,74.28262049950808
429.6202299846458,75.36948579143487,72.27400118730262,74.18509670230652
429.95357567449,76.23888131841427,73.59230562740584,74.51544633190566
430.2869213643343,75.90294250494962,74.08619346737694,73.91098005599247
430.6202670541786,76.09961916263212,75.35711832859211,73.9275579735674
430.95361274402285,75.2437097133172,75.501834362536,73.2077790776734
431.2869584338671,74.89386016865103,76.25681012069707,72.96995314333212
431.6203041237114,73.65581894062947,75.30254721704314,71.8516890007433
431.95364981355567,72.95864515781591,74.57765727957779,71.01182986284176
432.2869955033999,73.4030878152424,74.71016192790843,70.9830154392826
432.62034119324414,73.07503684719286,74.2158148248297,70.42224785812
432.95368688308844,73.4872899736539,74.5907622201503,70.2914338887839
433.28703257293273,72.71788035263552,74.11907257173661,68.84066602917157
433.62037826277697,72.89068692589726,74.1434379949001,68.30113648916773
433.9537239526212,73.53954205227507,74.8334739487455,68.87205328056226
434.2870696424655,73.00901967320993,74.22520016701424,68.53245513536953
434.6204153323098,72.74138560970893,74.2671994017952,68.36785126459496
434.953761022154,71.65990185349017,73.13240562210801,67.19807882548317
435.28710671199826,71.26474303610186,72.16869227552841,66.58627862704193
435.62045240184256,71.48386733753412,71.65114529131743,66.5802374116975
435.95379809168685,70.4602728745452,70.52387498278935,65.67141341494764
436.2871437815311,70.09768640523544,69.92656902755108,65.3892408564671
436.6204894713753,69.97615861192169,69.92911862049763,65.87772878767956
436.9538351612196,68.89420344654357,68.95646211088221,65.58842733618161
437.2871808510639,68.41561805706172,68.53830593411759,65.84114745310949
437.62052654090814,67.04109998177766,67.20658954599864,65.12035773319785
437.9538722307524,66.39826175110744,66.59183635079594,64.97890016541118
438.2872179205967,66.4573880540139,66.78754960071473,65.46502187424686
438.62056361044097,65.59277727210907,66.455697851557,65.0132292134633
438.9539093002852,64.95291096400356,66.42483938066971,65.12687965703662
439.28725499012944,64.87151490001388,66.96590929826662,65.56581104823543
439.62060067997373,64.24898324097872,66.41304562995168,65.01685319629259
439.95394636981797,64.1681553210739,66.82689447640087,65.16087089097059
440.28729205966226,64.22912848621701,67.89630574681966,66.10867918230205
440.6206377495065,63.25936443246316,68.20753682840223,66.0821104635679
440.95398343935074,62.872146692885096,68.81077842125154,66.64794096089967
441.28732912919503,61.84065491489602,68.33210445936874,66.43854847117058
441.6206748190393,61.41962015792673,68.41444834773006,66.53577071293373
441.95402050888356,61.52074151509764,69.21321295502128,67.15687319114146
442.2873661987278,61.10494599779131,68.79700819023432,66.7900892424704
442.6207118885721,61.01997618617253,69.07969448460891,66.80325368963155
442.9540575784164,60.12993459176429,68.26581497830212,65.76296332070012
443.2874032682606,59.88644034504834,67.87103720371086,65.40594969437369
443.62074895810485,60.048825977317726,67.86805060552312,65.38887031014553
443.95409464794915,59.638913009756585,66.94902858512674,64.43210746098622
444.28744033779344,59.46135967228254,66.69687242255554,64.00528419211403
444.6207860276377,59.77701877510984,66.7534911638892,64.29345131103311
444.9541317174819,59.42304830115036,66.1894570838079,63.72459709651863
445.2874774073262,59.50553371566011,66.14067041454943,63.8836695699168
445.6208230971705,58.64183803379836,65.13561298637381,62.8870432247712
445.95416878701474,58.291664349683536,65.21077044962493,62.165218017637855
446.287514476859,58.289497510115865,65.95359403416363,62.288184792599225
446.62086016670327,57.59996963466126,65.90005351491614,61.83662507123368
446.95420585654756,57.65017756132551,66.28686418646157,62.02109966367386
447.2875515463918,57.912857707885294,67.36003250505442,62.84816411152366
447.62089723623603,57.69964310201732,67.28750191502566,62.42858196607902
447.9542429260803,57.953309257196565,67.65365028368298,62.26269118205513
448.2875886159246,58.33761706715348,68.63286832312676,62.64328481620683
448.62093430576886,58.07388600486652,68.56116557722497,62.012448635593465
448.9542799956131,58.34578306976394,69.15838106330372,62.21395826245531
449.2876256854574,57.725406374474105,69.01422651025858,61.609251160449425
449.6209713753017,57.58706679615262,69.35472451435706,61.41778023155139
449.9543170651459,58.04821733856661,69.9470001785564,61.56489244352522
450.28766275499015,57.88875859543539,69.43664502453225,61.02923318837053
450.62100844483444,58.24531213145222,69.56577470727886,61.03870667910925
450.95435413467874,58.90769932832194,70.086621993395,61.85731022317947
451.287699824523,58.953984117948075,69.34456219256693,61.74843379815604
451.6210455143672,59.41698181824038,68.94954056094957,62.02535074642852
451.9543912042115,60.10446965765718,68.72724693768922,62.235376584324406
452.2877368940558,60.134810491429995,67.73653064015748,61.62671979561912
452.62108258390003,60.884082876022894,67.47098234554637,61.70781877334675
452.95442827374427,62.129565202745376,67.58539138513689,62.17777106600428
453.2877739635885,62.536487305617605,66.92817796785879,61.66616796085906
453.6211196534328,63.219860028889954,66.78776987544254,61.54017049646576
453.9544653432771,62.9891683382987,65.68512472379723,60.88415258881391
454.28781103312133,63.54447941529041,65.14540912302687,60.91052585465198
454.62115672296557,64.66299173572098,65.06226390087568,61.520390712583854
454.95450241280986,64.95857609483394,64.08209279503976,61.134788186710026
455.28784810265415,65.38158185922669,63.65514492144277,61.29111476329048
455.6211937924984,66.17996696283089,63.52014631275624,61.806992323117655
455.9545394823426,65.70734185809366,62.64446700898447,61.32490467196502
456.2878851721869,65.87302634836799,62.34352871302572,61.10747312183639
456.6212308620312,66.62175730359242,62.55489861352395,61.51666585323789
456.95457655187545,66.53216238661034,61.82290729036096,61.026821497867125
457.2879222417197,67.13050566332535,61.570682344991326,61.32489679877509
457.621267931564,68.29422347496757,62.067674610741754,61.984608965327986
457.95461362140827,68.66494378409844,62.0210362488011,61.479306144027824
458.2879593112525,69.37760499209028,62.18056692227266,61.33008370749338
458.62130500109674,70.21272690443078,62.930117133331606,61.826559581633084
458.95465069094104,70.01150136999568,62.61275091362609,61.54645407234281
459.28799638078533,70.27482181606382,62.80083368763871,61.788699541195705
459.62134207062957,69.60657436489859,62.09401599449094,61.07916752482206
459.9546877604738,69.46618809429282,61.94173875010516,60.855596804172635
460.2880334503181,69.92532725208852,62.35198327881963,61.189632540644496
460.6213791401624,69.61173322891617,61.74759827629328,60.865243712902654
460.9547248300066,69.698839561977,61.42005550300396,60.94612761349019
461.28807051985086,70.37731849901046,61.460478991150715,61.179179241804434
461.62141620969516,70.07320310634817,60.72710249475901,60.55898570430822
461.95476189953945,70.09422017526319,60.97786710817207,60.38668242111228
462.2881075893837,70.39057515153175,61.577156736497905,60.75308665594488
462.6214532792279,71.12161112975367,62.61563719300203,61.32621979527643
462.9547989690722,70.80082693203482,62.359370063133085,61.10248657744116
463.2881446589165,71.05730822094273,62.76286557765182,61.32316936837347
463.62149034876074,70.50736880004392,62.40822377727668,60.701322314018654
463.954836038605,70.2978895188741,62.285921167504,60.45615708549238
464.2881817284493,70.59458949454664,62.88440088819691,60.52390437677538
464.62152741829357,69.91669080212459,62.9745326771041,59.86027190926875
464.9548731081378,69.54229178223801,63.1780114436146,59.66225954753169
465.28821879798204,69.73580799999249,63.973294450260425,59.97638870882903
465.62156448782633,69.14020864067976,64.1600478526265,59.80114843859145
465.9549101776706,69.14202454098488,64.80663891934343,60.509886580766924
466.28825586751486,69.70085883748283,65.87101187194932,61.43185330951022
466.6216015573591,69.57123965504705,66.14670985732047,61.63036569965121
466.95494724720334,70.1000181700637,66.85113981388547,62.087853153926574
467.28829293704763,71.01797133751755,67.80648528545971,62.702426350000195
467.6216386268919,71.15569746217565,67.8545733036652,62.264530102243945
467.95498431673616,71.71443064106077,68.52510724513918,62.29242950589721
468.2883300065804,71.48726123675507,68.1661935476609,61.397299997963714
468.6216756964247,71.50284217285204,68.32719575918193,61.23460855078487
468.955021386269,71.82446193058314,68.68165933697793,62.015016606626446
469.2883670761132,71.13725560228366,68.08893505442572,62.22246651046572
469.62171276595745,71.07106349971444,67.97921062240341,62.967234641946675
469.95505845580175,71.6831136312124,68.64525987250201,64.31124977177738
470.28840414564604,71.33099630020273,68.59456455298869,64.83896321242634
470.6217498354903,71.49081914097654,68.94187426606989,65.74032721578521
470.9550955253345,72.05840545858007,70.03259656858332,67.1148571871592
471.2884412151788,71.89598961911521,69.99894458205189,67.38292859216757
471.6217869050231,72.61141293781542,70.04326125628529,68.15582888773822
471.95513259486734,74.16917507636302,70.56266769242366,69.44210449561683
472.2884782847116,74.895705460816,69.97695091344082,69.43739439356379
472.62182397455587,75.72229727017455,69.67263334485231,69.69339819707655
472.95516966440016,76.9431917108302,70.05031228095325,70.4007781907678
473.2885153542444,76.63895057785503,69.65927408098001,70.04657879089912
473.62186104408863,76.67584984818615,69.82950439410239,69.76960805597056
473.9552067339329,77.09513865053722,70.88452891400885,70.39036515108121
474.2885524237772,76.78667259365486,71.13487296857717,69.87641817095891
474.62189811362146,76.9603864002969,71.8981072656903,69.58595117420543
474.9552438034657,76.56260289342981,71.81382005636036,68.56360778386144
475.28858949331,76.63116286680963,72.27069091207878,68.54096111955565
475.6219351831543,77.27475091180018,73.2717757630459,69.52331121936534
475.9552808729985,76.67482206237905,73.04016924012534,69.72317075366543
476.28862656284275,76.55846534633493,73.22185223661508,70.4707471817022
476.62197225268704,75.60342184517478,72.40767253321901,70.29183255876666
476.95531794253134,75.39602258913156,72.17413721881435,70.25799569755654
477.2886636323756,75.69326625221055,72.70396152751165,70.7701492386156
477.6220093222198,75.00871899623415,72.29301621471889,70.19601872141533
477.9553550120641,74.5969252934002,72.39994525583768,70.50156742502726
478.2887007019084,75.27380985554986,73.30839317938515,71.59256756564719
478.62204639175263,75.11938889001266,73.32103748747531,71.68936386955785
478.95539208159687,75.53667335284449,73.57813320351144,72.10227076186597
479.28873777144116,75.0427273945183,72.69906406057991,71.85585264484823
479.62208346128546,75.20641812012042,72.67829066223612,72.11095551737188
479.9554291511297,76.16109354432272,73.32025503171289,72.61057638753019
480.28877484097393,76.49967849248642,72.89928305794524,72.39365973329922
480.62212053081817,77.60712264544034,72.91680472419762,72.83289378725553
480.95546622066246,79.17115193152434,73.46382539583247,73.7994930831519
481.28881191050675,79.6575469144562,73.2347397649229,73.77091018156298
481.622157600351,80.4673953863088,74.1378201061483,74.45742956106223
481.9555032901952,80.25182121511212,74.1922652926418,74.05022559598254
482.2888489800395,80.69878565312575,75.11851634600518,74.41330283193233
482.6221946698838,81.4360726922769,77.2191363080517,75.14351742140944
482.95554035972805,81.20188413083368,78.47628716538496,74.94379681874338
483.2888860495723,81.87882883584835,80.3780406275254,75.62114972102867
483.6222317394166,81.78462552006924,80.62596455148923,75.32949490472926
483.95557742926087,82.53313544555667,81.05647217356174,75.95012375504695
484.2889231191051,83.65796337295012,82.12095165398807,77.29708284395129
484.62226880894934,83.61353718387363,82.53975836131552,78.15402141949829
484.95561449879364,84.27143127187439,84.19859575978225,79.73433579018796
485.28896018863793,84.14806418659478,84.48003686378993,80.2878726836107
485.62230587848217,84.63633275489866,85.51060481432619,81.10430708767085
485.9556515683264,83.9333181819301,85.08634671258868,80.9880001707021
486.2889972581707,83.86814528673895,85.00184330922656,81.63276589166699
486.622342948015,82.79001158847309,83.90625736644375,81.04326849165253
486.9556886378592,82.32973579507708,83.60326257299515,81.12987043984573
487.28903432770346,80.96859292179902,82.5000044988332,80.31536215023756
487.62238001754775,80.54808328066609,82.57399401000254,80.21280235207723
487.95572570739205,79.28352782100039,81.53436464024578,79.22854240101076
488.2890713972363,79.13477285535836,81.61257474397662,79.05391173395475
488.6224170870805,78.03782722087091,80.61943087116586,77.81935131008244
488.9557627769248,77.59704351330302,80.37835573986574,77.51627968683599
489.2891084667691,77.96924885000944,80.65700331859453,77.74881783307944
489.62245415661334,77.57560480814433,80.0488418927462,76.97192478663662
489.9557998464576,77.84307834322215,80.11016266624891,76.89762131342577
490.2891455363019,77.38845516998936,79.38679072696209,76.11459920476858
490.62249122614617,77.53407665889688,79.58480120934101,75.76105020132047
490.9558369159904,76.50765772368968,79.06570696181444,74.6646058316072
491.28918260583464,76.04230273998621,79.3067815608822,74.10354470064222
491.62252829567893,74.42213713978263,78.50721117529591,72.70937902935661
491.9558739855232,73.59167483901993,78.14923590399351,72.55764595206978
492.28921967536746,73.53496423336298,78.28473787418501,73.14588704352016
492.6225653652117,72.77038865428253,77.14091377136351,72.79371891924303
492.955911055056,72.41190231011504,76.9417442531106,73.3691855624725
493.2892567449003,71.67842880826373,75.85747951205468,72.78737041619581
493.6226024347445,71.88905085239311,75.48919983162521,72.93923669246766
493.95594812458876,71.14046836446495,74.18278728860446,72.00927840464175
494.289293814433,71.2903810531231,73.54258465241078,71.7924254303326
494.6226395042773,71.9705229690743,73.34948606192907,72.36095734738724
494.9559851941216,71.9346993254671,72.57895298365183,71.68665228194811
495.2893308839658,72.96116158953082,72.85520362816096,71.74460382641954
495.62267657381005,73.12974261217732,72.24229186637882,70.93179128822177
495.95602226365435,73.87536106715915,72.45224925684458,71.2521984762093
496.28936795349864,73.50943179962655,71.63010628262953,70.36685103296429
496.6227136433429,73.37818866605471,71.39988016778265,70.1558076878288
496.9560593331871,74.07613059147084,71.58949444371888,70.32916845336929
497.2894050230314,74.14442956332663,70.87521784659585,69.83985753514473
497.6227507128757,74.77725276368312,70.59215462044678,69.89643735691153
497.95609640271994,74.82947141187415,69.16219764028926,68.64868546251455
498.2894420925642,75.59857748722261,68.13581811934624,68.1481712556096
498.62278778240847,76.79087401832456,67.87163472800447,68.50595188190654
498.95613347225276,77.21035106471754,66.87071023343637,67.83979877979834
499.289479162097,78.05835151419329,66.30890974674895,67.7112900370124
499.62282485194123,79.29212498401803,66.38467838553544,68.01938625156497
499.9561705417855,79.28616293426406,66.07754430202988,67.25299476247713
500.2895162316298,79.89264047072982,66.04767210847595,67.09938270713765
500.62286192147405,80.88575820980786,66.09224259310987,67.67492113219616
500.9562076113183,80.53925502198636,65.24482862381893,67.05575372215307
501.2895533011626,80.8711720095741,64.6916926016555,67.06986669103507
501.6228989910069,80.05251840446972,63.61861795363038,66.25067078630086
501.9562446808511,79.95557169364722,63.48115777976875,65.85929762146412
502.28959037069535,80.30684609496984,64.28090025163358,66.17399484699112
502.62293606053964,79.55107174892925,64.15212770195397,65.83693278501774
502.95628175038394,79.38706634220974,64.67061200242537,66.26398088815343
503.2896274402282,78.21857838562954,64.17198853256765,65.82833806716152
503.6229731300724,77.36352529308614,64.0781279587582,66.04204482916715
503.9563188199167,76.97196571812034,64.64454732446958,66.8879811901502
504.289664509761,75.54078741919344,64.23153805107019,67.0389483614976
504.62301019960523,75.00781544526106,64.54626693485937,67.89524999758265
504.95635588944947,74.98146033653103,65.31604139915768,69.24888897242339
505.28970157929376,74.4183033043883,65.31667783841075,69.46471293183605
505.62304726913806,75.04944839890267,65.98017579696585,70.28331346489576
505.9563929589823,75.24641834897865,65.72877740451585,70.24182261765363
506.2897386488265,76.18755646498194,65.77560663558877,70.69041604895865
506.6230843386708,77.42417900557984,66.40776111309403,71.79489511783561
506.95643002851506,77.34012254895339,66.28409603418376,72.20537447831956
507.28977571835935,77.7933846646786,66.58347474767449,73.45415946586112
507.6231214082036,77.42474818507586,66.2870441243902,73.97637160641911
507.9564670980478,77.72903674917522,66.2825267964418,75.08811776457291
508.2898127878921,77.0185290950717,65.5387280504313,74.95962009419748
508.6231584777364,76.80387798693009,65.68113192891578,75.53871733347259
508.95650416758065,77.1567359522584,66.36498073350002,76.7384639391037
509.2898498574249,76.45810421013404,66.19611608884296,76.90343467094624
509.6231955472692,76.42343412960135,66.54801458625468,77.54673869521486
509.95654123711347,75.39380179965005,66.15587683708029,77.11528576449903
510.2898869269577,74.91462740001708,66.41985496051437,77.32248960710331
510.62323261680194,73.62786437749146,65.78383908691522,76.67114980788486
510.95657830664624,72.93331159699173,66.12832487172325,76.9025486356509
511.28992399649053,73.14863181480156,67.38210427024306,77.9282145815518
511.62326968633477,72.7830641274281,67.52965120851168,77.90163097344367
511.956615376179,73.1505527187794,68.12529110262892,78.01850504049601
512.2899610660234,72.49318429574895,67.77371906702582,77.24083912935244
512.6233067558676,72.4418087784507,67.73028389174732,77.02853017518356
512.9566524457118,71.54468475027701,67.04470263268627,75.80754175600187
513.2899981355561,71.26992747085153,67.05201622292937,74.71660645997024
513.6233438254003,71.23253607047074,67.70495142514963,74.48819894657223
513.9566895152446,70.32998689267892,67.26492769327926,73.38620707533431
514.2900352050889,70.00571813211316,67.03023862579128,73.06298009610491
514.6233808949331,68.90779706703877,65.89904908284443,71.64137378943863
514.9567265847775,68.80660163205904,65.53751065654208,71.17317560565257
515.2900722746217,69.19102410502829,65.8575251888429,71.45267052916353
515.623417964466,68.46117430769243,65.05231373260048,70.9830118059671
515.9567636543102,68.38218469712446,64.62416159385161,70.9954184950767
516.2901093441544,68.87237113676382,64.74055137183598,71.495610414424
516.6234550339988,68.1974241832439,64.12171135919009,71.00644533917065
516.956800723843,67.75410091951787,63.9346667729465,70.85240549489261
517.2901464136872,67.67167125280262,64.29930263667737,71.07379842867775
517.6234921035316,67.15408284201041,63.707293022919686,69.90698746377443
517.9568377933758,67.19390695409187,63.5093056507379,68.8904544541245
518.2901834832201,66.10044772750615,62.372781157047456,66.84683880510443
518.6235291730643,65.22827434382326,61.820547244092616,65.40578709082952
518.9568748629085,64.94544313677113,61.8416343169229,64.70073063808532
519.2902205527529,63.614658074471734,61.25448910486326,63.22474359745319
519.6235662425971,63.057379526328674,60.82290703108657,62.478826183576054
519.9569119324414,63.189580232426266,60.83149708482986,62.640777382759126
520.2902576222857,62.6631525356889,59.95969511149494,61.596259434562285
520.62360331213,62.57711688297092,59.25276701980313,60.95909115527211
520.9569490019742,62.821487670089205,58.98154092832519,60.66468273537021
521.2902946918184,63.19571493831426,58.97193617451359,61.053751013987466
521.6236403816627,63.20570317019381,58.232641412775216,60.4384201397624
521.9569860715069,63.61925566501157,58.31959166837379,60.5013987191124
522.2903317613512,64.49836898017264,58.90651510986535,61.06095606349812
522.6236774511955,64.59286624066536,58.70406229538682,60.77318969518216
522.9570231410397,65.24388229544623,58.7154849162586,61.03291346704897
523.2903688308841,66.66791189079436,59.273515688131,61.9857467261403
523.6237145207283,66.88545484538677,58.8332187942909,62.062815076907526
523.9570602105725,67.46530753901246,58.66974998621556,62.286442017770426
524.2904059004168,67.2518513694263,57.56444793770141,61.56185586437575
524.623751590261,67.63391060295866,57.0939306309781,61.093260033913914
524.9570972801054,68.61468112141661,57.08750102650668,61.18129149512853
525.2904429699496,68.79224050784457,56.22689339237172,60.495500672146335
525.6237886597938,69.46980726175934,55.94614430983281,60.321638933993164
525.9571343496382,70.76676039443659,56.44342169131148,60.58589793483392
526.2904800394824,70.6865385337898,56.198963481453376,60.18310795401694
526.6238257293267,70.99642580054113,56.35043761087605,60.714546856817975
526.9571714191709,71.76158752417746,57.01992152619158,61.70371220525037
527.2905171090151,71.52627808649179,56.776473087660676,62.19342353870417
527.6238627988595,72.12831140811821,57.256488417548425,63.22676151956613
527.9572084887037,73.20296877474293,58.42051227248486,64.51364586329225
528.290554178548,73.30184014794104,58.70723663238852,64.86174540156944
528.6238998683923,73.7553807405858,59.287066128197,65.49622761032741
528.9572455582365,73.23127649922587,59.06401066233373,65.24322976074166
529.2905912480808,73.05295843680885,59.12491987451316,65.93847231983008
529.623936937925,73.3199650984714,59.60578680916711,67.51305973349174
529.9572826277692,72.67637869213047,59.58968295515524,68.10883895815248
530.2906283176136,72.48260913699607,59.91600179353496,68.8897374527938
530.6239740074578,71.48831862442765,59.216773502460875,68.43509498957246
530.9573196973021,70.99647396202205,59.30187526309964,68.767605207403
531.2906653871464,71.1605492477166,60.321091709270455,69.49608757802002
531.6240110769907,70.3726968454121,60.652017570529026,69.29081908656946
531.9573567668349,70.00150836244045,61.283330898338264,69.47683036682002
532.2907024566791,70.60618416456651,62.320507109686346,70.11557047836288
532.6240481465234,70.50208618208151,62.757700721294654,69.35274474910106
532.9573938363677,70.92220142242357,63.67478299139448,68.97076709182507
533.290739526212,70.17094948385943,63.48947144129347,67.94766164751582
533.6240852160562,70.19484663834433,63.46002750603023,67.68140138336324
533.9574309059004,70.85360320296691,63.9317027104844,67.7325165077126
534.2907765957448,70.70562766654724,63.51882416105476,66.8556828484675
534.624122285589,70.77939871779603,63.627999921776,66.41058876104753
534.9574679754332,71.0460643766605,63.99265295211087,66.2021944673253
535.2908136652775,70.53345961364955,63.41147648824645,65.25596598382913
535.6241593551217,70.75514226516374,63.299267292215895,65.00369728457625
535.9575050449661,71.41915918628665,63.813059868837165,65.33322949185805
536.2908507348103,71.1113790943485,63.34196938658239,64.889668620482
536.6241964246545,71.68252423695553,63.43256578952071,65.0995061790076
536.9575421144989,71.44912721898471,62.6777993476131,64.21989397343769
537.2908878043431,71.59421932412964,62.272240035907,63.95076733772628
537.6242334941874,71.99042740039262,62.05220419332859,64.00249115013735
537.9575791840316,71.47031424765885,61.27701866833885,63.32015744398502
538.2909248738758,71.67514853455961,61.04426447174963,63.119149241178036
538.6242705637202,72.45007196328672,61.51689958978832,63.72815389050992
538.9576162535644,72.39482526291195,61.26285988134363,63.81311858356847
539.2909619434087,73.01814530031281,61.28833535914134,64.42427340946763
539.624307633253,74.24621294981151,61.64331182332629,65.75932107944061
539.9576533230972,74.19937872488161,60.81885928005553,66.05799280939985
540.2909990129415,74.71049897921121,60.59710591373221,66.56852022639643
540.6243447027857,73.93698121746229,59.703204412110146,65.92038154473057
540.95769039263,73.75497403394881,59.5836348301682,65.43184608165645
541.2910360824743,73.92904123590448,59.934711976239775,65.58453232360473
541.6243817723185,72.85457714675817,59.31809065113434,64.83341014921982
541.9577274621628,72.6335019412248,59.31240314509625,64.76789294280863
542.2910731520071,72.95966100555933,59.64022233533968,65.16576974158572
542.6244188418514,72.2288136857095,59.30941035204773,64.68081910174848
542.9577645316956,71.93065272765301,59.831554173396334,65.13741852145887
543.2911102215398,70.53371266224822,59.312245565429926,64.70342639562708
543.6244559113841,69.55144779411557,58.967542945658536,64.90996448007334
543.9578016012284,69.25800518270282,59.17046363638083,65.60389105069834
544.2911472910727,68.13374866908758,58.63773997774722,65.17389443506522
544.6244929809169,67.37370577958644,58.81562285363774,65.28687057090212
544.9578386707612,67.35580678695486,59.280465632285704,65.80815743084761
545.2911843606055,66.3788447837794,58.71835660900495,65.34376130920481
545.6245300504497,65.98044134878667,58.80241117050702,65.1516821002887
545.957875740294,66.09383435757651,59.122208541513416,65.3196017465398
546.2912214301382,65.35822726932662,58.277702891258,64.43302500967577
546.6245671199825,64.80590016414064,57.69739722194802,64.09839265150325
546.9579128098268,64.57359365797792,57.74556147975827,64.35484692401721
547.291258499671,63.51314632413972,57.11706458367833,63.80930697229606
547.6246041895153,63.26309907742613,56.995629975287876,63.63566676281193
547.9579498793596,63.6911212380482,57.37568476273057,63.617633682660845
548.2912955692038,63.46421304087043,56.99539776891233,62.620025528939486
548.6246412590481,63.34064270636184,56.82177197411303,62.26160079817261
548.9579869488923,62.34099645276737,55.8273862512907,61.35817473884667
549.2913326387365,61.77260322193979,55.319921428476555,61.02812690470506
549.6246783285809,61.9633733857162,55.46699852780929,61.19789471571025
549.9580240184251,61.48154382934442,55.25351759280442,60.16129466950175
550.2913697082694,61.517279546907105,55.598487530578964,59.6074976509175
550.6247153981137,61.99236234336905,56.217885510529435,59.58256267971791
550.958061087958,61.7088785909321,56.07217798793037,58.68868873355703
551.2914067778022,61.796918704638514,56.59389045731585,58.344322946502785
551.6247524676464,62.35265927255557,57.21899608324826,58.48027143079111
551.9580981574907,62.01192071839272,57.17029458151122,57.821397208169074
552.291443847335,61.82765963031483,57.6188226971851,57.52778447753692
552.6247895371793,62.306077930974205,58.29479843246319,57.82363643865814
552.9581352270235,61.66090823684913,58.18130623313955,57.495476587797185
553.2914809168678,61.35588392638313,58.551917365726624,57.65048906964603
553.6248266067121,61.70490907377175,59.22457139077599,58.22149072412878
553.9581722965563,61.02318709465742,59.124361432111606,57.94149492598492
554.2915179864005,60.985648232432254,59.389743016944095,57.747329353689366
554.6248636762448,60.34576695615553,59.03526339527355,56.70449948422401
